I,II,III,AVR,AVL,AVF,V1,V2,V3,V4,V5,V6
-0.015,0.12,0.135,-0.053,-0.075,0.127,-0.105,0.07,0.115,0.16,0.06,0.065
-0.015,0.12,0.135,-0.053,-0.075,0.127,-0.105,0.07,0.115,0.16,0.06,0.065
-0.015,0.12,0.135,-0.053,-0.075,0.127,-0.105,0.07,0.115,0.16,0.06,0.065
-0.015,0.12,0.135,-0.053,-0.075,0.127,-0.105,0.07,0.115,0.16,0.06,0.065
-0.015,0.12,0.135,-0.053,-0.075,0.127,-0.105,0.07,0.115,0.161,0.06,0.065
-0.015,0.12,0.135,-0.053,-0.075,0.127,-0.105,0.07,0.115,0.16,0.06,0.065
-0.023,0.112,0.135,-0.045,-0.079,0.123,-0.097,0.062,0.107,0.148,0.052,0.057
-0.031,0.103,0.134,-0.037,-0.082,0.118,-0.092,0.054,0.099,0.138,0.044,0.049
-0.041,0.097,0.138,-0.029,-0.09,0.118,-0.088,0.047,0.091,0.131,0.036,0.041
-0.052,0.095,0.147,-0.022,-0.1,0.121,-0.085,0.045,0.083,0.123,0.028,0.034
-0.055,0.095,0.15,-0.02,-0.103,0.122,-0.085,0.045,0.075,0.115,0.02,0.03
-0.05,0.095,0.146,-0.023,-0.099,0.121,-0.085,0.045,0.067,0.107,0.012,0.022
-0.053,0.092,0.145,-0.02,-0.099,0.118,-0.082,0.045,0.062,0.099,0.004,0.017
-0.056,0.089,0.145,-0.017,-0.1,0.117,-0.079,0.045,0.058,0.092,-0.003,0.011
-0.055,0.09,0.145,-0.018,-0.1,0.117,-0.08,0.045,0.055,0.09,-0.005,0.003
-0.055,0.09,0.145,-0.018,-0.1,0.117,-0.08,0.045,0.055,0.09,-0.005,0.0
-0.055,0.09,0.145,-0.018,-0.1,0.117,-0.076,0.045,0.055,0.09,-0.005,0.0
-0.058,0.087,0.145,-0.015,-0.102,0.116,-0.074,0.045,0.055,0.087,-0.005,0.0
-0.061,0.084,0.145,-0.012,-0.103,0.115,-0.076,0.045,0.055,0.084,-0.005,0.0
-0.06,0.085,0.145,-0.013,-0.103,0.115,-0.074,0.045,0.055,0.085,-0.006,0.0
-0.06,0.085,0.145,-0.013,-0.103,0.115,-0.07,0.045,0.055,0.085,-0.01,0.0
-0.064,0.081,0.145,-0.009,-0.105,0.112,-0.07,0.045,0.055,0.085,-0.01,0.0
-0.065,0.08,0.145,-0.008,-0.105,0.112,-0.071,0.045,0.055,0.082,-0.01,0.0
-0.065,0.08,0.145,-0.008,-0.105,0.112,-0.068,0.045,0.055,0.079,-0.01,0.0
-0.064,0.08,0.144,-0.009,-0.104,0.112,-0.065,0.045,0.055,0.08,-0.01,0.0
-0.06,0.08,0.14,-0.01,-0.1,0.11,-0.065,0.045,0.055,0.08,-0.01,0.0
-0.064,0.076,0.14,-0.006,-0.102,0.107,-0.065,0.045,0.055,0.08,-0.01,0.0
-0.066,0.075,0.14,-0.004,-0.103,0.107,-0.062,0.045,0.052,0.077,-0.013,0.0
-0.065,0.075,0.14,-0.005,-0.103,0.107,-0.059,0.045,0.049,0.074,-0.016,0.0
-0.065,0.075,0.14,-0.005,-0.103,0.107,-0.06,0.045,0.05,0.075,-0.015,0.0
-0.065,0.075,0.14,-0.005,-0.103,0.107,-0.06,0.045,0.05,0.075,-0.015,0.0
-0.061,0.079,0.14,-0.009,-0.1,0.11,-0.056,0.045,0.05,0.071,-0.015,0.0
-0.06,0.08,0.14,-0.01,-0.1,0.11,-0.055,0.045,0.05,0.07,-0.014,0.0
-0.06,0.08,0.14,-0.01,-0.1,0.11,-0.055,0.045,0.05,0.07,-0.017,0.0
-0.06,0.08,0.14,-0.01,-0.1,0.11,-0.055,0.045,0.05,0.07,-0.02,0.0
-0.06,0.08,0.14,-0.01,-0.1,0.11,-0.055,0.045,0.05,0.07,-0.02,0.0
-0.06,0.08,0.14,-0.01,-0.1,0.11,-0.051,0.041,0.05,0.066,-0.02,0.0
-0.059,0.08,0.139,-0.01,-0.099,0.11,-0.05,0.04,0.05,0.065,-0.02,0.0
-0.062,0.08,0.142,-0.009,-0.102,0.111,-0.05,0.04,0.05,0.065,-0.02,0.0
-0.066,0.08,0.145,-0.008,-0.106,0.112,-0.05,0.04,0.05,0.065,-0.02,0.0
-0.065,0.08,0.145,-0.008,-0.105,0.112,-0.05,0.04,0.05,0.065,-0.02,0.0
-0.064,0.08,0.145,-0.008,-0.104,0.112,-0.05,0.04,0.046,0.061,-0.024,0.0
-0.069,0.079,0.148,-0.005,-0.109,0.113,-0.05,0.04,0.045,0.06,-0.025,0.0
-0.067,0.083,0.151,-0.008,-0.109,0.117,-0.05,0.04,0.045,0.06,-0.027,0.0
-0.058,0.092,0.15,-0.017,-0.104,0.121,-0.05,0.04,0.045,0.06,-0.031,0.0
-0.055,0.095,0.15,-0.02,-0.103,0.122,-0.05,0.04,0.045,0.06,-0.03,0.0
-0.059,0.095,0.154,-0.018,-0.107,0.125,-0.05,0.04,0.045,0.06,-0.026,0.0
-0.061,0.095,0.155,-0.018,-0.108,0.125,-0.05,0.04,0.045,0.06,-0.025,0.0
-0.06,0.095,0.155,-0.018,-0.108,0.125,-0.05,0.04,0.045,0.06,-0.025,0.0
-0.06,0.095,0.155,-0.018,-0.108,0.125,-0.05,0.04,0.044,0.06,-0.025,0.0
-0.06,0.095,0.155,-0.018,-0.108,0.125,-0.05,0.04,0.04,0.06,-0.025,0.0
-0.056,0.095,0.151,-0.02,-0.104,0.122,-0.05,0.041,0.04,0.06,-0.025,-0.004
-0.055,0.095,0.15,-0.02,-0.103,0.122,-0.05,0.037,0.04,0.06,-0.025,-0.009
-0.055,0.095,0.15,-0.02,-0.103,0.122,-0.05,0.05,0.04,0.06,-0.025,-0.008
-0.055,0.095,0.15,-0.02,-0.103,0.122,-0.05,0.066,0.04,0.059,-0.025,-0.004
-0.055,0.095,0.15,-0.02,-0.103,0.122,-0.05,0.06,0.04,0.055,-0.025,-0.005
-0.055,0.095,0.15,-0.02,-0.103,0.122,-0.05,0.059,0.04,0.055,-0.025,-0.005
-0.055,0.095,0.15,-0.02,-0.103,0.122,-0.05,0.061,0.041,0.055,-0.025,-0.005
-0.055,0.095,0.15,-0.02,-0.103,0.122,-0.05,0.058,0.038,0.055,-0.025,-0.005
-0.055,0.095,0.15,-0.02,-0.103,0.122,-0.05,0.055,0.035,0.055,-0.024,-0.004
-0.055,0.095,0.15,-0.02,-0.103,0.122,-0.05,0.055,0.035,0.055,-0.02,0.0
-0.055,0.095,0.15,-0.02,-0.103,0.122,-0.05,0.055,0.035,0.055,-0.02,0.0
-0.055,0.095,0.15,-0.02,-0.103,0.122,-0.049,0.052,0.035,0.055,-0.02,0.0
-0.055,0.095,0.15,-0.02,-0.103,0.122,-0.052,0.049,0.035,0.055,-0.02,0.0
-0.054,0.095,0.149,-0.02,-0.102,0.122,-0.055,0.05,0.035,0.055,-0.02,0.0
-0.05,0.095,0.145,-0.023,-0.098,0.12,-0.055,0.05,0.035,0.055,-0.02,0.0
-0.05,0.095,0.145,-0.023,-0.098,0.12,-0.055,0.046,0.035,0.055,-0.02,0.0
-0.05,0.095,0.145,-0.023,-0.098,0.12,-0.055,0.044,0.036,0.056,-0.02,0.003
-0.05,0.095,0.145,-0.023,-0.098,0.12,-0.055,0.046,0.033,0.053,-0.02,0.006
-0.05,0.095,0.145,-0.023,-0.098,0.12,-0.055,0.044,0.03,0.05,-0.02,0.005
-0.05,0.095,0.145,-0.023,-0.098,0.12,-0.055,0.04,0.03,0.05,-0.02,0.005
-0.05,0.095,0.145,-0.023,-0.098,0.12,-0.059,0.04,0.026,0.05,-0.02,0.005
-0.049,0.096,0.145,-0.024,-0.098,0.12,-0.06,0.041,0.024,0.047,-0.019,0.004
-0.052,0.093,0.145,-0.021,-0.099,0.119,-0.06,0.038,0.026,0.045,-0.022,0.007
-0.055,0.09,0.145,-0.018,-0.1,0.117,-0.06,0.035,0.024,0.045,-0.025,0.01
-0.055,0.09,0.145,-0.018,-0.1,0.117,-0.06,0.035,0.02,0.045,-0.025,0.01
-0.055,0.09,0.145,-0.018,-0.1,0.117,-0.06,0.035,0.02,0.045,-0.025,0.01
-0.056,0.09,0.146,-0.018,-0.101,0.117,-0.06,0.032,0.017,0.042,-0.025,0.01
-0.053,0.09,0.143,-0.019,-0.098,0.116,-0.06,0.03,0.014,0.039,-0.025,0.01
-0.05,0.09,0.14,-0.02,-0.095,0.115,-0.06,0.03,0.015,0.04,-0.025,0.01
-0.05,0.09,0.14,-0.02,-0.095,0.115,-0.06,0.03,0.015,0.04,-0.025,0.01
-0.05,0.09,0.14,-0.02,-0.095,0.115,-0.06,0.03,0.011,0.04,-0.025,0.006
-0.05,0.09,0.14,-0.02,-0.095,0.115,-0.063,0.027,0.01,0.037,-0.028,0.004
-0.05,0.09,0.14,-0.02,-0.095,0.115,-0.066,0.025,0.008,0.034,-0.031,0.006
-0.05,0.09,0.14,-0.02,-0.095,0.115,-0.065,0.024,0.004,0.035,-0.03,0.004
-0.05,0.09,0.14,-0.02,-0.095,0.115,-0.065,0.02,0.005,0.035,-0.03,0.0
-0.05,0.09,0.14,-0.02,-0.095,0.115,-0.065,0.02,0.005,0.031,-0.03,0.0
-0.053,0.087,0.14,-0.017,-0.097,0.113,-0.065,0.017,0.002,0.03,-0.03,0.0
-0.056,0.084,0.14,-0.014,-0.098,0.112,-0.065,0.014,-0.001,0.03,-0.03,0.0
-0.055,0.085,0.14,-0.015,-0.098,0.112,-0.065,0.015,0.0,0.03,-0.03,-0.001
-0.055,0.085,0.14,-0.015,-0.098,0.112,-0.065,0.015,0.0,0.03,-0.03,-0.005
-0.055,0.085,0.14,-0.015,-0.098,0.112,-0.065,0.011,-0.004,0.026,-0.034,-0.005
-0.055,0.085,0.14,-0.015,-0.098,0.112,-0.066,0.01,-0.008,0.025,-0.035,-0.005
-0.055,0.085,0.14,-0.015,-0.098,0.112,-0.063,0.008,-0.012,0.025,-0.035,-0.005
-0.055,0.085,0.14,-0.015,-0.098,0.112,-0.06,0.005,-0.015,0.025,-0.035,-0.006
-0.055,0.085,0.14,-0.015,-0.098,0.112,-0.06,0.005,-0.015,0.025,-0.035,-0.01
-0.055,0.085,0.14,-0.015,-0.098,0.112,-0.06,0.001,-0.019,0.029,-0.035,-0.01
-0.055,0.085,0.14,-0.015,-0.098,0.112,-0.06,-0.001,-0.024,0.03,-0.038,-0.009
-0.055,0.085,0.14,-0.015,-0.098,0.112,-0.06,0.001,-0.025,0.03,-0.041,-0.012
-0.055,0.085,0.14,-0.015,-0.098,0.112,-0.059,-0.001,-0.026,0.03,-0.04,-0.015
-0.055,0.085,0.14,-0.015,-0.098,0.112,-0.055,-0.005,-0.03,0.03,-0.04,-0.015
-0.059,0.081,0.14,-0.011,-0.1,0.11,-0.055,-0.005,-0.034,0.03,-0.04,-0.015
-0.06,0.08,0.14,-0.01,-0.1,0.11,-0.055,-0.008,-0.036,0.03,-0.041,-0.014
-0.062,0.078,0.14,-0.008,-0.101,0.109,-0.055,-0.01,-0.033,0.03,-0.038,-0.017
-0.065,0.075,0.14,-0.005,-0.103,0.107,-0.055,-0.011,-0.03,0.03,-0.035,-0.02
-0.065,0.075,0.14,-0.005,-0.103,0.107,-0.055,-0.015,-0.03,0.03,-0.035,-0.02
-0.065,0.071,0.136,-0.003,-0.101,0.103,-0.055,-0.015,-0.03,0.03,-0.031,-0.02
-0.064,0.07,0.134,-0.003,-0.099,0.102,-0.052,-0.018,-0.027,0.03,-0.029,-0.02
-0.067,0.068,0.136,-0.001,-0.102,0.102,-0.049,-0.02,-0.024,0.03,-0.031,-0.018
-0.069,0.065,0.134,0.002,-0.102,0.099,-0.05,-0.021,-0.025,0.03,-0.029,-0.014
-0.065,0.065,0.13,0.0,-0.098,0.097,-0.05,-0.025,-0.025,0.03,-0.025,-0.01
-0.069,0.06,0.13,0.004,-0.099,0.095,-0.05,-0.026,-0.021,0.03,-0.025,-0.006
-0.069,0.061,0.131,0.004,-0.1,0.096,-0.051,-0.022,-0.019,0.03,-0.026,-0.005
-0.074,0.054,0.128,0.01,-0.101,0.09,-0.048,-0.017,-0.021,0.03,-0.023,-0.004
-0.089,0.036,0.125,0.026,-0.107,0.08,-0.045,-0.015,-0.019,0.03,-0.02,0.001
-0.095,0.025,0.12,0.035,-0.108,0.072,-0.045,-0.015,-0.015,0.03,-0.02,0.005
-0.076,0.013,0.089,0.032,-0.083,0.051,-0.045,-0.011,-0.015,0.03,-0.02,0.005
-0.055,0.001,0.056,0.027,-0.055,0.028,-0.045,-0.01,-0.016,0.03,-0.017,0.007
-0.049,-0.009,0.039,0.029,-0.043,0.015,-0.045,-0.009,-0.013,0.03,-0.014,0.013
-0.05,-0.017,0.033,0.033,-0.041,0.008,-0.045,-0.004,-0.01,0.03,-0.015,0.015
-0.05,-0.025,0.025,0.037,-0.037,0.0,-0.045,0.0,-0.01,0.03,-0.015,0.015
-0.054,-0.033,0.021,0.043,-0.037,-0.006,-0.041,0.0,-0.01,0.03,-0.011,0.019
-0.056,-0.041,0.015,0.048,-0.035,-0.013,-0.04,0.003,-0.007,0.029,-0.01,0.024
-0.054,-0.049,0.005,0.052,-0.029,-0.021,-0.038,0.005,-0.004,0.032,-0.008,0.025
-0.056,-0.057,-0.001,0.057,-0.027,-0.029,-0.035,0.005,-0.005,0.035,-0.004,0.026
-0.06,-0.065,-0.005,0.063,-0.027,-0.035,-0.035,0.01,-0.005,0.035,-0.005,0.03
-0.057,-0.069,-0.013,0.064,-0.022,-0.041,-0.031,0.014,-0.001,0.039,-0.006,0.03
-0.05,-0.072,-0.022,0.061,-0.014,-0.046,-0.03,0.015,0.0,0.04,-0.002,0.032
-0.055,-0.082,-0.027,0.068,-0.013,-0.054,-0.029,0.016,0.0,0.042,0.0,0.038
-0.068,-0.099,-0.032,0.084,-0.018,-0.065,-0.024,0.021,0.0,0.045,0.001,0.04
-0.07,-0.11,-0.04,0.09,-0.015,-0.075,-0.02,0.025,0.0,0.045,0.005,0.04
-0.058,-0.106,-0.048,0.082,-0.004,-0.077,-0.02,0.025,0.004,0.049,0.005,0.044
-0.051,-0.104,-0.053,0.078,0.002,-0.079,-0.017,0.028,0.005,0.05,0.004,0.045
-0.048,-0.105,-0.057,0.077,0.005,-0.081,-0.015,0.031,0.005,0.05,0.007,0.047
-0.045,-0.105,-0.06,0.075,0.008,-0.082,-0.015,0.03,0.005,0.05,0.01,0.05
-0.045,-0.105,-0.06,0.075,0.008,-0.082,-0.01,0.03,0.005,0.05,0.01,0.05
-0.041,-0.105,-0.064,0.074,0.012,-0.085,-0.005,0.03,0.005,0.05,0.014,0.05
-0.039,-0.104,-0.065,0.072,0.014,-0.085,-0.005,0.03,0.005,0.05,0.016,0.05
-0.043,-0.108,-0.065,0.076,0.012,-0.086,-0.003,0.03,0.005,0.05,0.014,0.05
-0.044,-0.109,-0.065,0.077,0.01,-0.086,0.001,0.03,0.005,0.051,0.016,0.05
-0.045,-0.11,-0.065,0.078,0.01,-0.087,0.0,0.03,0.005,0.055,0.02,0.05
-0.063,-0.135,-0.073,0.099,0.005,-0.103,-0.004,0.034,0.005,0.055,0.02,0.05
-0.06,-0.141,-0.081,0.101,0.011,-0.111,-0.006,0.035,0.005,0.055,0.019,0.053
-0.041,-0.13,-0.089,0.086,0.025,-0.11,-0.003,0.035,0.005,0.055,0.022,0.056
-0.045,-0.142,-0.096,0.094,0.026,-0.119,0.0,0.035,0.006,0.055,0.025,0.055
-0.075,-0.175,-0.1,0.125,0.013,-0.137,0.0,0.035,0.01,0.055,0.025,0.055
-0.077,-0.181,-0.104,0.129,0.014,-0.142,0.0,0.035,0.01,0.055,0.025,0.055
-0.071,-0.179,-0.108,0.125,0.018,-0.143,0.0,0.035,0.01,0.055,0.028,0.055
-0.07,-0.182,-0.112,0.126,0.021,-0.147,0.0,0.035,0.01,0.057,0.031,0.055
-0.07,-0.185,-0.115,0.128,0.023,-0.15,0.0,0.034,0.01,0.061,0.029,0.054
-0.065,-0.185,-0.12,0.125,0.028,-0.152,0.0,0.03,0.01,0.065,0.03,0.055
-0.052,-0.189,-0.137,0.12,0.043,-0.163,0.0,0.03,0.01,0.069,0.043,0.072
-0.053,-0.191,-0.138,0.122,0.043,-0.164,0.0,0.03,0.01,0.071,0.043,0.073
-0.053,-0.188,-0.134,0.121,0.041,-0.161,0.0,0.03,0.01,0.068,0.039,0.069
-0.05,-0.185,-0.134,0.118,0.043,-0.16,0.001,0.03,0.01,0.065,0.04,0.069
-0.055,-0.185,-0.13,0.12,0.038,-0.157,0.005,0.03,0.01,0.065,0.04,0.065
-0.051,-0.181,-0.13,0.116,0.04,-0.155,0.005,0.026,0.01,0.065,0.036,0.065
-0.052,-0.179,-0.127,0.116,0.037,-0.153,0.005,0.025,0.011,0.062,0.035,0.066
-0.056,-0.181,-0.124,0.119,0.034,-0.152,0.005,0.025,0.008,0.059,0.035,0.063
-0.054,-0.179,-0.125,0.117,0.036,-0.152,0.005,0.025,0.005,0.06,0.035,0.06
-0.05,-0.175,-0.125,0.113,0.038,-0.15,0.005,0.025,0.005,0.06,0.035,0.06
-0.054,-0.175,-0.121,0.114,0.034,-0.147,0.005,0.025,0.005,0.056,0.031,0.06
-0.055,-0.176,-0.12,0.115,0.033,-0.147,0.005,0.026,0.006,0.054,0.03,0.057
-0.055,-0.173,-0.118,0.114,0.032,-0.145,0.005,0.023,0.003,0.056,0.03,0.054
-0.055,-0.17,-0.115,0.113,0.03,-0.142,0.005,0.02,0.0,0.054,0.03,0.055
-0.055,-0.17,-0.115,0.113,0.03,-0.142,0.005,0.02,0.0,0.05,0.03,0.055
-0.06,-0.17,-0.111,0.115,0.026,-0.141,0.001,0.02,0.0,0.05,0.026,0.051
-0.058,-0.167,-0.109,0.112,0.026,-0.138,0.0,0.02,0.001,0.051,0.024,0.05
-0.053,-0.164,-0.111,0.109,0.029,-0.137,0.0,0.02,-0.002,0.048,0.026,0.048
-0.057,-0.165,-0.109,0.111,0.026,-0.137,0.0,0.019,-0.005,0.045,0.024,0.044
-0.065,-0.165,-0.1,0.115,0.018,-0.132,0.0,0.015,-0.005,0.045,0.02,0.045
-0.065,-0.157,-0.092,0.111,0.014,-0.124,0.0,0.015,-0.005,0.045,0.02,0.045
-0.067,-0.151,-0.084,0.109,0.009,-0.118,0.0,0.015,-0.005,0.042,0.02,0.042
-0.073,-0.149,-0.076,0.111,0.002,-0.112,0.0,0.015,-0.005,0.039,0.02,0.039
-0.075,-0.143,-0.068,0.109,-0.003,-0.105,0.0,0.015,-0.006,0.04,0.019,0.04
-0.075,-0.135,-0.06,0.105,-0.007,-0.097,0.0,0.015,-0.01,0.04,0.015,0.04
-0.078,-0.131,-0.053,0.105,-0.012,-0.092,0.0,0.015,-0.01,0.036,0.015,0.036
-0.057,-0.126,-0.07,0.092,0.007,-0.097,0.0,0.018,-0.01,0.035,0.015,0.035
-0.042,-0.126,-0.085,0.084,0.022,-0.105,0.0,0.021,-0.01,0.035,0.015,0.035
-0.046,-0.131,-0.085,0.089,0.019,-0.107,-0.001,0.02,-0.011,0.035,0.016,0.036
-0.045,-0.13,-0.085,0.088,0.02,-0.107,-0.005,0.02,-0.015,0.035,0.02,0.04
-0.044,-0.13,-0.085,0.087,0.02,-0.107,-0.005,0.02,-0.015,0.039,0.02,0.044
-0.049,-0.133,-0.084,0.091,0.018,-0.109,-0.005,0.02,-0.015,0.04,0.023,0.048
-0.049,-0.136,-0.087,0.092,0.02,-0.111,-0.005,0.02,-0.015,0.04,0.025,0.051
-0.044,-0.135,-0.09,0.089,0.024,-0.112,-0.005,0.02,-0.015,0.04,0.026,0.049
-0.045,-0.135,-0.09,0.09,0.023,-0.112,-0.005,0.02,-0.015,0.04,0.03,0.045
-0.049,-0.139,-0.09,0.094,0.02,-0.114,-0.005,0.02,-0.011,0.04,0.03,0.045
-0.05,-0.14,-0.09,0.095,0.02,-0.115,-0.005,0.02,-0.01,0.041,0.033,0.045
-0.05,-0.14,-0.09,0.095,0.02,-0.115,-0.005,0.02,-0.01,0.038,0.036,0.045
-0.049,-0.14,-0.091,0.095,0.021,-0.115,-0.005,0.02,-0.01,0.035,0.035,0.045
-0.045,-0.14,-0.095,0.093,0.025,-0.117,-0.005,0.02,-0.01,0.035,0.035,0.045
-0.045,-0.14,-0.095,0.093,0.025,-0.117,-0.005,0.02,-0.01,0.035,0.035,0.045
-0.045,-0.14,-0.095,0.093,0.025,-0.117,-0.004,0.02,-0.01,0.035,0.035,0.045
-0.045,-0.14,-0.095,0.093,0.025,-0.117,-0.007,0.02,-0.01,0.035,0.035,0.045
-0.044,-0.139,-0.095,0.092,0.025,-0.117,-0.01,0.02,-0.01,0.035,0.035,0.045
-0.045,-0.14,-0.095,0.093,0.025,-0.117,-0.01,0.02,-0.01,0.035,0.035,0.045
-0.062,-0.157,-0.095,0.11,0.016,-0.126,-0.01,0.02,-0.01,0.035,0.035,0.045
-0.064,-0.159,-0.095,0.112,0.016,-0.127,-0.01,0.02,-0.01,0.035,0.035,0.045
-0.059,-0.154,-0.095,0.107,0.019,-0.125,-0.01,0.02,-0.01,0.035,0.035,0.045
-0.06,-0.155,-0.095,0.108,0.018,-0.125,-0.01,0.02,-0.01,0.035,0.035,0.045
-0.06,-0.155,-0.095,0.108,0.018,-0.125,-0.01,0.02,-0.01,0.035,0.035,0.045
-0.059,-0.155,-0.096,0.108,0.019,-0.125,-0.01,0.02,-0.01,0.035,0.035,0.045
-0.063,-0.155,-0.092,0.11,0.015,-0.124,-0.01,0.02,-0.01,0.035,0.035,0.045
-0.05,-0.155,-0.105,0.103,0.028,-0.13,-0.01,0.02,-0.01,0.035,0.035,0.045
-0.034,-0.155,-0.122,0.094,0.044,-0.138,-0.01,0.019,-0.01,0.035,0.034,0.045
-0.04,-0.155,-0.115,0.098,0.038,-0.135,-0.01,0.015,-0.01,0.035,0.03,0.045
-0.041,-0.151,-0.11,0.096,0.035,-0.131,-0.01,0.015,-0.01,0.035,0.03,0.045
-0.039,-0.15,-0.11,0.094,0.035,-0.13,-0.013,0.016,-0.01,0.035,0.031,0.045
-0.042,-0.15,-0.109,0.096,0.034,-0.129,-0.016,0.013,-0.01,0.035,0.028,0.045
-0.046,-0.15,-0.104,0.099,0.029,-0.126,-0.015,0.01,-0.01,0.035,0.025,0.045
-0.05,-0.15,-0.1,0.1,0.025,-0.125,-0.015,0.01,-0.01,0.035,0.025,0.045
-0.05,-0.15,-0.1,0.1,0.025,-0.125,-0.015,0.01,-0.01,0.035,0.025,0.045
-0.055,-0.15,-0.095,0.102,0.02,-0.122,-0.015,0.007,-0.009,0.035,0.026,0.042
-0.065,-0.151,-0.085,0.108,0.01,-0.118,-0.015,0.004,-0.012,0.035,0.023,0.039
-0.07,-0.149,-0.079,0.109,0.005,-0.114,-0.015,0.005,-0.015,0.035,0.02,0.04
-0.065,-0.14,-0.075,0.103,0.005,-0.107,-0.015,0.005,-0.015,0.035,0.02,0.04
-0.064,-0.131,-0.067,0.098,0.002,-0.099,-0.015,0.001,-0.019,0.031,0.02,0.04
-0.069,-0.127,-0.058,0.098,-0.005,-0.093,-0.015,-0.001,-0.02,0.03,0.02,0.04
-0.069,-0.122,-0.053,0.096,-0.008,-0.087,-0.015,0.001,-0.022,0.028,0.018,0.04
-0.064,-0.113,-0.049,0.088,-0.007,-0.08,-0.015,-0.001,-0.025,0.025,0.015,0.04
-0.06,-0.105,-0.045,0.083,-0.007,-0.075,-0.015,-0.005,-0.025,0.025,0.015,0.04
-0.056,-0.101,-0.045,0.079,-0.005,-0.073,-0.019,-0.005,-0.029,0.021,0.015,0.04
-0.055,-0.097,-0.042,0.076,-0.006,-0.069,-0.024,-0.004,-0.03,0.02,0.012,0.04
-0.053,-0.093,-0.04,0.073,-0.006,-0.066,-0.025,-0.007,-0.032,0.018,0.01,0.04
-0.05,-0.089,-0.039,0.069,-0.005,-0.064,-0.026,-0.01,-0.035,0.015,0.01,0.04
-0.05,-0.085,-0.035,0.068,-0.007,-0.06,-0.03,-0.01,-0.035,0.015,0.01,0.04
-0.05,-0.085,-0.035,0.068,-0.007,-0.06,-0.034,-0.01,-0.039,0.011,0.01,0.04
-0.047,-0.083,-0.035,0.065,-0.006,-0.058,-0.035,-0.013,-0.04,0.01,0.007,0.04
-0.042,-0.077,-0.035,0.06,-0.004,-0.056,-0.035,-0.016,-0.04,0.008,0.004,0.04
-0.04,-0.075,-0.035,0.058,-0.002,-0.055,-0.035,-0.015,-0.04,0.005,0.005,0.04
-0.04,-0.075,-0.035,0.058,-0.002,-0.055,-0.035,-0.015,-0.04,0.005,0.005,0.04
-0.036,-0.071,-0.035,0.054,0.0,-0.053,-0.035,-0.015,-0.04,0.001,0.005,0.04
-0.032,-0.066,-0.034,0.049,0.001,-0.05,-0.035,-0.018,-0.041,0.0,0.002,0.04
-0.029,-0.067,-0.038,0.048,0.005,-0.052,-0.035,-0.022,-0.036,-0.002,-0.001,0.04
-0.031,-0.061,-0.03,0.046,0.0,-0.045,-0.035,-0.026,-0.038,-0.006,0.0,0.039
-0.04,-0.03,0.01,0.035,-0.025,-0.01,-0.035,-0.03,-0.06,-0.005,0.0,0.035
-0.05,0.0,0.05,0.024,-0.051,0.025,-0.043,-0.034,-0.065,-0.005,-0.004,0.031
-0.042,0.01,0.052,0.016,-0.047,0.031,-0.049,-0.039,-0.065,-0.008,-0.006,0.026
-0.046,0.011,0.058,0.017,-0.052,0.034,-0.05,-0.04,-0.065,-0.011,-0.004,0.025
-0.062,0.016,0.078,0.023,-0.071,0.047,-0.05,-0.041,-0.065,-0.01,-0.006,0.024
-0.06,0.02,0.08,0.02,-0.07,0.05,-0.05,-0.045,-0.065,-0.01,-0.01,0.02
-0.056,0.024,0.08,0.016,-0.068,0.051,-0.05,-0.045,-0.065,-0.014,-0.01,0.016
-0.051,0.029,0.08,0.011,-0.066,0.054,-0.05,-0.045,-0.065,-0.016,-0.009,0.015
-0.05,0.03,0.08,0.01,-0.065,0.055,-0.05,-0.045,-0.065,-0.014,-0.012,0.014
-0.049,0.031,0.08,0.009,-0.065,0.055,-0.05,-0.045,-0.065,-0.016,-0.015,0.009
-0.045,0.035,0.08,0.005,-0.063,0.057,-0.05,-0.045,-0.065,-0.02,-0.015,0.005
-0.045,0.035,0.08,0.005,-0.063,0.057,-0.054,-0.045,-0.065,-0.02,-0.015,0.005
-0.045,0.035,0.079,0.005,-0.063,0.057,-0.055,-0.044,-0.065,-0.019,-0.018,0.002
-0.047,0.035,0.082,0.006,-0.065,0.058,-0.055,-0.047,-0.065,-0.022,-0.021,-0.001
-0.05,0.035,0.085,0.007,-0.068,0.06,-0.055,-0.05,-0.065,-0.025,-0.02,0.0
-0.05,0.035,0.085,0.007,-0.068,0.06,-0.055,-0.05,-0.065,-0.025,-0.02,0.0
-0.05,0.035,0.085,0.007,-0.068,0.06,-0.055,-0.05,-0.065,-0.025,-0.024,-0.004
-0.05,0.035,0.085,0.007,-0.068,0.06,-0.055,-0.05,-0.065,-0.028,-0.026,-0.006
-0.05,0.035,0.085,0.007,-0.068,0.06,-0.055,-0.05,-0.065,-0.031,-0.024,-0.004
-0.05,0.035,0.085,0.007,-0.068,0.06,-0.056,-0.05,-0.064,-0.03,-0.026,-0.006
-0.05,0.035,0.085,0.007,-0.068,0.06,-0.06,-0.05,-0.065,-0.03,-0.03,-0.01
-0.051,0.035,0.085,0.008,-0.069,0.06,-0.06,-0.05,-0.077,-0.034,-0.03,-0.01
-0.045,0.038,0.083,0.003,-0.064,0.06,-0.06,-0.053,-0.084,-0.035,-0.03,-0.009
-0.05,0.042,0.092,0.003,-0.071,0.067,-0.06,-0.056,-0.085,-0.035,-0.03,-0.012
-0.062,0.046,0.108,0.007,-0.085,0.077,-0.06,-0.055,-0.085,-0.035,-0.029,-0.015
-0.06,0.05,0.11,0.005,-0.085,0.08,-0.06,-0.055,-0.085,-0.035,-0.025,-0.015
-0.056,0.054,0.11,0.001,-0.084,0.081,-0.06,-0.055,-0.085,-0.039,-0.025,-0.015
-0.05,0.059,0.109,-0.004,-0.08,0.084,-0.06,-0.055,-0.085,-0.04,-0.025,-0.018
-0.053,0.059,0.112,-0.003,-0.083,0.085,-0.06,-0.055,-0.085,-0.04,-0.025,-0.021
-0.052,0.063,0.115,-0.006,-0.084,0.089,-0.059,-0.055,-0.085,-0.04,-0.025,-0.02
-0.035,0.08,0.115,-0.023,-0.075,0.097,-0.055,-0.055,-0.085,-0.04,-0.025,-0.02
-0.038,0.077,0.114,-0.02,-0.077,0.096,-0.055,-0.055,-0.085,-0.04,-0.025,-0.024
-0.044,0.074,0.118,-0.015,-0.082,0.096,-0.055,-0.058,-0.085,-0.043,-0.025,-0.026
-0.045,0.075,0.12,-0.015,-0.083,0.097,-0.055,-0.061,-0.085,-0.046,-0.025,-0.024
-0.046,0.075,0.121,-0.015,-0.084,0.098,-0.055,-0.06,-0.086,-0.045,-0.025,-0.026
-0.05,0.075,0.125,-0.013,-0.088,0.1,-0.055,-0.06,-0.09,-0.045,-0.025,-0.03
-0.048,0.075,0.123,-0.014,-0.086,0.099,-0.055,-0.06,-0.09,-0.045,-0.025,-0.03
-0.063,0.075,0.138,-0.007,-0.101,0.106,-0.055,-0.06,-0.093,-0.046,-0.026,-0.03
-0.07,0.075,0.145,-0.003,-0.108,0.11,-0.055,-0.06,-0.095,-0.043,-0.023,-0.03
-0.064,0.075,0.139,-0.005,-0.102,0.107,-0.055,-0.06,-0.096,-0.04,-0.02,-0.029
-0.065,0.075,0.14,-0.005,-0.103,0.107,-0.055,-0.06,-0.1,-0.04,-0.02,-0.025
-0.065,0.075,0.14,-0.005,-0.103,0.107,-0.055,-0.064,-0.101,-0.04,-0.02,-0.025
-0.065,0.075,0.14,-0.005,-0.103,0.107,-0.055,-0.065,-0.097,-0.04,-0.02,-0.025
-0.063,0.075,0.138,-0.006,-0.101,0.106,-0.055,-0.065,-0.095,-0.04,-0.02,-0.025
-0.06,0.075,0.135,-0.008,-0.098,0.105,-0.055,-0.065,-0.095,-0.04,-0.02,-0.025
-0.06,0.075,0.135,-0.008,-0.098,0.105,-0.055,-0.065,-0.095,-0.04,-0.02,-0.025
-0.06,0.075,0.135,-0.008,-0.098,0.105,-0.055,-0.065,-0.095,-0.04,-0.02,-0.021
-0.06,0.075,0.135,-0.008,-0.098,0.105,-0.055,-0.065,-0.095,-0.037,-0.02,-0.02
-0.06,0.075,0.135,-0.008,-0.098,0.105,-0.055,-0.065,-0.095,-0.034,-0.02,-0.02
-0.059,0.075,0.134,-0.008,-0.097,0.105,-0.055,-0.066,-0.095,-0.035,-0.02,-0.02
-0.055,0.075,0.13,-0.01,-0.093,0.102,-0.055,-0.07,-0.095,-0.035,-0.02,-0.02
-0.055,0.075,0.13,-0.01,-0.093,0.102,-0.055,-0.07,-0.091,-0.035,-0.02,-0.02
-0.055,0.075,0.13,-0.01,-0.093,0.102,-0.055,-0.07,-0.09,-0.035,-0.017,-0.021
-0.055,0.075,0.13,-0.01,-0.093,0.102,-0.055,-0.07,-0.09,-0.035,-0.014,-0.018
-0.054,0.075,0.129,-0.011,-0.092,0.102,-0.055,-0.07,-0.09,-0.035,-0.015,-0.015
-0.05,0.075,0.125,-0.013,-0.088,0.1,-0.055,-0.07,-0.09,-0.035,-0.015,-0.015
-0.05,0.075,0.125,-0.013,-0.088,0.1,-0.055,-0.07,-0.09,-0.031,-0.015,-0.015
-0.05,0.076,0.125,-0.013,-0.088,0.1,-0.058,-0.07,-0.09,-0.03,-0.015,-0.015
-0.052,0.073,0.125,-0.011,-0.089,0.099,-0.061,-0.07,-0.09,-0.03,-0.015,-0.015
-0.055,0.07,0.125,-0.008,-0.09,0.097,-0.06,-0.069,-0.089,-0.03,-0.015,-0.014
-0.055,0.07,0.125,-0.008,-0.09,0.097,-0.06,-0.065,-0.085,-0.03,-0.015,-0.01
-0.055,0.07,0.125,-0.008,-0.09,0.097,-0.06,-0.065,-0.085,-0.03,-0.015,-0.01
-0.055,0.07,0.125,-0.008,-0.09,0.097,-0.057,-0.065,-0.085,-0.03,-0.015,-0.01
-0.055,0.07,0.125,-0.008,-0.09,0.097,-0.054,-0.065,-0.085,-0.03,-0.015,-0.01
-0.055,0.07,0.125,-0.008,-0.09,0.097,-0.055,-0.065,-0.085,-0.03,-0.015,-0.01
-0.055,0.07,0.125,-0.008,-0.09,0.097,-0.055,-0.065,-0.085,-0.03,-0.015,-0.01
-0.055,0.07,0.125,-0.008,-0.09,0.097,-0.055,-0.061,-0.085,-0.034,-0.015,-0.01
-0.058,0.067,0.125,-0.005,-0.092,0.096,-0.055,-0.06,-0.085,-0.035,-0.015,-0.013
-0.061,0.064,0.125,-0.002,-0.093,0.095,-0.055,-0.06,-0.085,-0.035,-0.015,-0.016
-0.06,0.065,0.125,-0.003,-0.093,0.095,-0.055,-0.06,-0.085,-0.035,-0.015,-0.015
-0.06,0.065,0.125,-0.003,-0.093,0.095,-0.055,-0.06,-0.085,-0.035,-0.015,-0.015
-0.06,0.065,0.125,-0.003,-0.093,0.095,-0.055,-0.06,-0.085,-0.035,-0.015,-0.015
-0.06,0.065,0.125,-0.003,-0.093,0.095,-0.055,-0.061,-0.085,-0.035,-0.015,-0.015
-0.06,0.065,0.125,-0.003,-0.093,0.095,-0.055,-0.058,-0.085,-0.035,-0.015,-0.015
-0.06,0.065,0.125,-0.003,-0.093,0.095,-0.055,-0.055,-0.085,-0.035,-0.015,-0.015
-0.06,0.065,0.125,-0.003,-0.093,0.095,-0.055,-0.055,-0.085,-0.035,-0.015,-0.015
-0.064,0.061,0.125,0.001,-0.095,0.092,-0.051,-0.055,-0.085,-0.035,-0.015,-0.015
-0.065,0.06,0.125,0.002,-0.095,0.092,-0.05,-0.055,-0.085,-0.035,-0.015,-0.015
-0.065,0.06,0.125,0.002,-0.095,0.092,-0.05,-0.055,-0.085,-0.035,-0.014,-0.015
-0.065,0.06,0.125,0.002,-0.095,0.092,-0.05,-0.054,-0.085,-0.035,-0.016,-0.015
-0.065,0.06,0.125,0.002,-0.095,0.092,-0.05,-0.05,-0.085,-0.035,-0.025,-0.015
-0.065,0.06,0.125,0.002,-0.095,0.092,-0.05,-0.05,-0.085,-0.035,-0.034,-0.015
-0.065,0.06,0.125,0.002,-0.095,0.092,-0.05,-0.05,-0.085,-0.035,-0.033,-0.015
-0.065,0.06,0.125,0.002,-0.095,0.092,-0.05,-0.05,-0.085,-0.035,-0.029,-0.015
-0.065,0.06,0.125,0.002,-0.095,0.092,-0.05,-0.05,-0.085,-0.035,-0.03,-0.015
-0.065,0.06,0.125,0.002,-0.095,0.092,-0.05,-0.05,-0.085,-0.035,-0.03,-0.015
-0.061,0.064,0.125,-0.002,-0.093,0.095,-0.05,-0.05,-0.085,-0.035,-0.03,-0.015
-0.059,0.065,0.124,-0.004,-0.092,0.095,-0.05,-0.053,-0.085,-0.035,-0.03,-0.015
-0.062,0.065,0.127,-0.002,-0.095,0.096,-0.05,-0.056,-0.085,-0.035,-0.03,-0.015
-0.065,0.065,0.13,0.0,-0.098,0.097,-0.05,-0.055,-0.085,-0.035,-0.03,-0.015
-0.065,0.065,0.13,0.0,-0.098,0.097,-0.05,-0.055,-0.085,-0.035,-0.03,-0.015
-0.065,0.065,0.13,0.0,-0.098,0.097,-0.05,-0.055,-0.085,-0.035,-0.026,-0.015
-0.065,0.065,0.13,0.0,-0.098,0.097,-0.05,-0.055,-0.085,-0.035,-0.025,-0.015
-0.065,0.065,0.13,0.0,-0.098,0.097,-0.05,-0.055,-0.085,-0.035,-0.025,-0.015
-0.065,0.065,0.13,0.0,-0.098,0.097,-0.05,-0.055,-0.085,-0.035,-0.025,-0.016
-0.065,0.065,0.13,0.0,-0.098,0.097,-0.05,-0.055,-0.085,-0.035,-0.025,-0.02
-0.065,0.065,0.13,0.0,-0.098,0.097,-0.05,-0.055,-0.085,-0.035,-0.025,-0.02
-0.065,0.065,0.13,0.0,-0.098,0.097,-0.05,-0.054,-0.088,-0.035,-0.025,-0.02
-0.065,0.065,0.13,0.0,-0.098,0.097,-0.05,-0.057,-0.091,-0.035,-0.025,-0.02
-0.065,0.065,0.13,0.0,-0.098,0.097,-0.05,-0.06,-0.09,-0.035,-0.024,-0.02
-0.065,0.065,0.13,0.0,-0.098,0.097,-0.05,-0.06,-0.09,-0.035,-0.02,-0.02
-0.065,0.065,0.13,0.0,-0.098,0.097,-0.05,-0.06,-0.09,-0.035,-0.02,-0.02
-0.065,0.065,0.13,0.0,-0.098,0.097,-0.05,-0.06,-0.09,-0.035,-0.02,-0.019
-0.064,0.066,0.13,-0.001,-0.097,0.098,-0.05,-0.06,-0.09,-0.035,-0.02,-0.022
-0.059,0.071,0.13,-0.006,-0.094,0.101,-0.05,-0.06,-0.09,-0.035,-0.02,-0.025
-0.055,0.075,0.13,-0.01,-0.093,0.102,-0.05,-0.06,-0.09,-0.035,-0.02,-0.025
-0.055,0.075,0.13,-0.01,-0.093,0.102,-0.05,-0.06,-0.09,-0.039,-0.02,-0.025
-0.055,0.075,0.13,-0.01,-0.093,0.102,-0.05,-0.06,-0.09,-0.04,-0.02,-0.025
-0.055,0.075,0.13,-0.01,-0.093,0.102,-0.05,-0.06,-0.09,-0.042,-0.02,-0.025
-0.055,0.075,0.13,-0.01,-0.093,0.102,-0.05,-0.059,-0.091,-0.046,-0.019,-0.025
-0.055,0.075,0.13,-0.01,-0.093,0.102,-0.05,-0.055,-0.095,-0.045,-0.015,-0.025
-0.055,0.075,0.13,-0.01,-0.093,0.102,-0.05,-0.055,-0.095,-0.041,-0.015,-0.025
-0.055,0.075,0.13,-0.01,-0.093,0.102,-0.05,-0.055,-0.095,-0.039,-0.012,-0.028
-0.055,0.075,0.13,-0.01,-0.093,0.102,-0.05,-0.055,-0.095,-0.041,-0.009,-0.031
-0.056,0.075,0.131,-0.01,-0.094,0.102,-0.05,-0.054,-0.095,-0.039,-0.01,-0.03
-0.055,0.075,0.13,-0.01,-0.093,0.102,-0.05,-0.05,-0.095,-0.035,-0.01,-0.03
-0.048,0.075,0.124,-0.014,-0.086,0.099,-0.05,-0.05,-0.099,-0.035,-0.006,-0.03
-0.066,0.074,0.14,-0.004,-0.104,0.107,-0.053,-0.05,-0.1,-0.035,-0.004,-0.03
-0.073,0.078,0.151,-0.003,-0.113,0.114,-0.055,-0.05,-0.1,-0.035,-0.006,-0.03
-0.056,0.087,0.143,-0.016,-0.1,0.115,-0.056,-0.05,-0.1,-0.034,-0.004,-0.03
-0.05,0.09,0.14,-0.02,-0.095,0.115,-0.06,-0.05,-0.1,-0.03,0.0,-0.03
-0.049,0.088,0.137,-0.02,-0.093,0.112,-0.061,-0.046,-0.1,-0.03,0.0,-0.031
-0.026,0.103,0.13,-0.039,-0.078,0.116,-0.057,-0.045,-0.097,-0.031,-0.001,-0.024
-0.043,0.108,0.151,-0.033,-0.097,0.129,-0.055,-0.045,-0.093,-0.028,0.002,-0.018
-0.069,0.099,0.168,-0.015,-0.118,0.133,-0.054,-0.045,-0.089,-0.025,0.005,-0.013
-0.035,0.095,0.13,-0.03,-0.083,0.112,-0.05,-0.045,-0.085,-0.025,0.005,-0.005
-0.035,0.064,0.099,-0.015,-0.068,0.082,-0.05,-0.045,-0.081,-0.025,0.004,-0.001
-0.057,0.031,0.088,0.012,-0.073,0.059,-0.047,-0.042,-0.076,-0.026,0.008,0.006
-0.068,0.014,0.081,0.026,-0.074,0.047,-0.045,-0.039,-0.075,-0.023,0.01,0.012
-0.064,0.009,0.073,0.027,-0.068,0.041,-0.044,-0.04,-0.074,-0.02,0.011,0.016
-0.06,0.005,0.065,0.027,-0.063,0.035,-0.04,-0.04,-0.07,-0.02,0.015,0.02
-0.056,0.001,0.057,0.027,-0.057,0.029,-0.04,-0.04,-0.07,-0.02,0.015,0.02
-0.052,-0.003,0.049,0.027,-0.05,0.023,-0.041,-0.037,-0.07,-0.02,0.018,0.023
-0.05,-0.007,0.043,0.028,-0.046,0.018,-0.038,-0.034,-0.07,-0.02,0.021,0.026
-0.05,-0.011,0.039,0.03,-0.044,0.014,-0.035,-0.035,-0.07,-0.019,0.02,0.025
-0.05,-0.015,0.035,0.032,-0.042,0.01,-0.035,-0.035,-0.07,-0.015,0.02,0.025
-0.054,-0.023,0.031,0.039,-0.042,0.003,-0.035,-0.035,-0.066,-0.015,0.024,0.029
-0.055,-0.028,0.026,0.041,-0.041,-0.001,-0.032,-0.036,-0.065,-0.015,0.025,0.031
-0.057,-0.032,0.025,0.044,-0.041,-0.003,-0.029,-0.033,-0.065,-0.015,0.027,0.029
-0.06,-0.036,0.024,0.048,-0.042,-0.006,-0.03,-0.03,-0.065,-0.015,0.03,0.031
-0.06,-0.04,0.02,0.05,-0.04,-0.01,-0.03,-0.03,-0.065,-0.015,0.03,0.035
-0.06,-0.044,0.016,0.052,-0.037,-0.014,-0.026,-0.03,-0.065,-0.015,0.034,0.035
-0.06,-0.045,0.015,0.052,-0.037,-0.015,-0.024,-0.031,-0.066,-0.012,0.036,0.034
-0.058,-0.045,0.013,0.051,-0.035,-0.015,-0.026,-0.028,-0.063,-0.009,0.034,0.037
-0.054,-0.045,0.009,0.049,-0.031,-0.018,-0.024,-0.025,-0.06,-0.01,0.036,0.04
-0.05,-0.045,0.005,0.047,-0.027,-0.02,-0.02,-0.025,-0.06,-0.01,0.04,0.04
-0.048,-0.045,0.003,0.046,-0.025,-0.021,-0.02,-0.025,-0.06,-0.01,0.04,0.04
-0.065,-0.044,0.021,0.055,-0.043,-0.011,-0.021,-0.025,-0.06,-0.011,0.04,0.037
-0.078,-0.047,0.031,0.062,-0.054,-0.007,-0.018,-0.025,-0.06,-0.008,0.04,0.034
-0.074,-0.05,0.023,0.062,-0.048,-0.013,-0.015,-0.024,-0.059,-0.005,0.04,0.035
-0.07,-0.05,0.02,0.06,-0.045,-0.015,-0.015,-0.02,-0.055,-0.005,0.04,0.035
-0.07,-0.05,0.02,0.06,-0.045,-0.015,-0.015,-0.02,-0.055,-0.005,0.04,0.035
-0.067,-0.05,0.017,0.058,-0.042,-0.016,-0.012,-0.02,-0.055,-0.005,0.043,0.035
-0.065,-0.05,0.015,0.057,-0.04,-0.017,-0.01,-0.02,-0.055,-0.005,0.046,0.035
-0.064,-0.05,0.015,0.057,-0.039,-0.017,-0.01,-0.02,-0.055,-0.005,0.045,0.035
-0.06,-0.05,0.01,0.055,-0.035,-0.02,-0.01,-0.02,-0.055,-0.005,0.045,0.035
-0.06,-0.054,0.005,0.057,-0.032,-0.024,-0.01,-0.016,-0.055,-0.001,0.045,0.035
-0.061,-0.055,0.005,0.057,-0.032,-0.025,-0.007,-0.015,-0.052,0.001,0.045,0.035
-0.058,-0.055,0.003,0.056,-0.03,-0.026,-0.004,-0.015,-0.049,-0.001,0.045,0.035
-0.055,-0.055,0.0,0.055,-0.027,-0.027,-0.005,-0.015,-0.05,0.001,0.046,0.035
-0.055,-0.055,0.0,0.055,-0.027,-0.027,-0.005,-0.015,-0.05,0.005,0.05,0.035
-0.048,-0.055,-0.008,0.051,-0.019,-0.031,-0.005,-0.015,-0.046,0.005,0.05,0.031
-0.038,-0.054,-0.016,0.046,-0.01,-0.034,-0.002,-0.016,-0.045,0.004,0.05,0.03
-0.035,-0.059,-0.024,0.047,-0.005,-0.041,0.001,-0.013,-0.045,0.007,0.05,0.03
-0.044,-0.075,-0.031,0.059,-0.006,-0.053,0.0,-0.01,-0.045,0.01,0.05,0.03
-0.055,-0.09,-0.035,0.073,-0.01,-0.062,0.0,-0.01,-0.045,0.01,0.05,0.03
-0.043,-0.083,-0.039,0.063,-0.002,-0.061,0.0,-0.01,-0.041,0.01,0.05,0.03
-0.036,-0.076,-0.04,0.056,0.003,-0.058,0.003,-0.01,-0.039,0.011,0.05,0.03
-0.034,-0.074,-0.04,0.054,0.003,-0.056,0.006,-0.01,-0.041,0.008,0.05,0.03
-0.028,-0.068,-0.04,0.048,0.006,-0.054,0.005,-0.009,-0.039,0.005,0.05,0.03
-0.02,-0.06,-0.04,0.04,0.01,-0.05,0.005,-0.005,-0.035,0.005,0.05,0.03
-0.016,-0.056,-0.04,0.036,0.012,-0.047,0.005,-0.005,-0.035,0.005,0.05,0.03
-0.012,-0.052,-0.04,0.032,0.015,-0.046,0.004,-0.005,-0.035,0.005,0.05,0.03
-0.01,-0.048,-0.038,0.029,0.015,-0.043,0.007,-0.005,-0.035,0.005,0.05,0.03
-0.01,-0.044,-0.034,0.027,0.012,-0.039,0.01,-0.005,-0.034,0.005,0.05,0.031
-0.01,-0.04,-0.03,0.025,0.01,-0.035,0.01,-0.005,-0.03,0.005,0.05,0.035
-0.01,-0.036,-0.026,0.023,0.008,-0.031,0.01,-0.006,-0.03,0.005,0.05,0.035
-0.01,-0.032,-0.022,0.021,0.006,-0.027,0.009,0.001,-0.03,0.005,0.05,0.038
-0.009,-0.027,-0.018,0.019,0.004,-0.023,0.012,0.008,-0.03,0.005,0.05,0.041
-0.011,-0.025,-0.014,0.019,0.002,-0.019,0.015,0.011,-0.029,0.005,0.05,0.039
-0.015,-0.025,-0.01,0.02,-0.002,-0.017,0.015,0.015,-0.025,0.005,0.05,0.035
-0.007,-0.016,-0.009,0.012,0.001,-0.012,0.015,0.019,-0.025,0.001,0.05,0.035
-0.001,-0.016,-0.015,0.008,0.007,-0.015,0.015,0.023,-0.026,0.0,0.05,0.032
-0.001,0.009,0.01,-0.004,-0.005,0.009,0.015,0.028,-0.023,0.0,0.05,0.03
-0.007,0.063,0.071,-0.029,-0.039,0.067,0.014,0.029,-0.02,0.0,0.05,0.029
-0.01,0.105,0.115,-0.048,-0.063,0.11,0.01,0.02,-0.02,0.0,0.05,0.025
0.006,0.123,0.117,-0.065,-0.056,0.12,0.01,0.011,-0.02,0.0,0.05,0.025
-0.018,0.127,0.145,-0.054,-0.082,0.135,0.011,0.007,-0.024,0.0,0.05,0.022
-0.024,0.139,0.162,-0.057,-0.093,0.15,0.008,0.002,-0.037,0.0,0.05,0.02
-0.003,0.15,0.154,-0.074,-0.079,0.152,0.004,-0.007,-0.045,0.0,0.05,0.019
-0.015,0.14,0.155,-0.063,-0.085,0.147,0.005,-0.015,-0.04,0.0,0.05,0.015
-0.018,0.133,0.151,-0.058,-0.085,0.142,0.006,-0.02,-0.04,0.0,0.05,0.014
-0.001,0.149,0.15,-0.074,-0.075,0.149,-0.003,-0.018,-0.037,-0.001,0.051,0.024
0.018,0.167,0.149,-0.093,-0.065,0.158,-0.017,-0.013,-0.035,0.005,0.048,0.035
0.035,0.179,0.144,-0.107,-0.055,0.161,-0.027,-0.009,-0.034,0.018,0.054,0.042
0.055,0.2,0.145,-0.128,-0.045,0.172,-0.035,-0.005,-0.03,0.025,0.075,0.05
0.067,0.226,0.16,-0.147,-0.046,0.192,-0.047,-0.001,-0.03,0.033,0.072,0.059
0.046,0.229,0.183,-0.138,-0.068,0.205,-0.06,0.003,-0.027,0.043,0.066,0.058
0.034,0.224,0.191,-0.129,-0.079,0.207,-0.069,0.008,-0.025,0.042,0.063,0.052
0.041,0.224,0.183,-0.133,-0.072,0.204,-0.077,0.009,-0.025,0.034,0.06,0.05
0.04,0.22,0.18,-0.13,-0.07,0.2,-0.09,0.0,-0.02,0.03,0.06,0.05
0.044,0.22,0.176,-0.133,-0.066,0.198,-0.108,-0.008,-0.018,0.022,0.056,0.046
0.045,0.217,0.172,-0.131,-0.064,0.194,-0.139,-0.016,-0.032,0.017,0.051,0.045
0.047,0.215,0.168,-0.131,-0.061,0.191,-0.15,-0.024,-0.044,0.011,0.05,0.044
0.05,0.214,0.164,-0.132,-0.058,0.189,-0.138,-0.032,-0.046,0.004,0.049,0.039
0.04,0.205,0.165,-0.123,-0.063,0.185,-0.135,-0.04,-0.05,0.0,0.045,0.035
0.023,0.201,0.178,-0.112,-0.078,0.19,-0.131,-0.044,-0.054,-0.008,0.04,0.035
0.016,0.194,0.178,-0.105,-0.081,0.186,-0.127,-0.052,-0.057,-0.017,0.041,0.032
0.013,0.188,0.174,-0.101,-0.081,0.181,-0.123,-0.054,-0.066,-0.022,0.036,0.03
0.009,0.183,0.174,-0.096,-0.083,0.179,-0.119,-0.049,-0.077,-0.027,0.029,0.029
0.005,0.175,0.17,-0.09,-0.083,0.172,-0.115,-0.05,-0.08,-0.035,0.025,0.02
0.001,0.171,0.17,-0.086,-0.085,0.171,-0.111,-0.05,-0.084,-0.043,0.017,0.016
-0.003,0.164,0.167,-0.081,-0.085,0.165,-0.11,-0.05,-0.089,-0.048,0.012,0.009
-0.007,0.157,0.165,-0.076,-0.086,0.161,-0.111,-0.05,-0.09,-0.052,0.006,0.003
-0.011,0.154,0.165,-0.072,-0.088,0.16,-0.109,-0.05,-0.091,-0.055,-0.001,-0.002
-0.01,0.15,0.16,-0.07,-0.085,0.155,-0.105,-0.05,-0.095,-0.055,-0.005,-0.01
-0.01,0.146,0.156,-0.068,-0.084,0.151,-0.105,-0.05,-0.095,-0.055,-0.009,-0.014
-0.043,0.142,0.185,-0.049,-0.115,0.163,-0.106,-0.05,-0.098,-0.055,-0.01,-0.018
-0.064,0.138,0.202,-0.037,-0.133,0.17,-0.103,-0.05,-0.101,-0.055,-0.012,-0.022
-0.06,0.134,0.194,-0.038,-0.127,0.164,-0.1,-0.049,-0.1,-0.055,-0.015,-0.026
-0.065,0.13,0.195,-0.033,-0.13,0.162,-0.1,-0.05,-0.1,-0.055,-0.015,-0.03
-0.065,0.13,0.195,-0.033,-0.13,0.162,-0.1,-0.066,-0.104,-0.063,-0.019,-0.034
-0.064,0.131,0.195,-0.034,-0.13,0.162,-0.1,-0.075,-0.106,-0.069,-0.021,-0.038
-0.067,0.128,0.195,-0.031,-0.131,0.161,-0.098,-0.075,-0.104,-0.072,-0.019,-0.041
-0.07,0.125,0.195,-0.028,-0.133,0.16,-0.095,-0.076,-0.107,-0.076,-0.021,-0.04
-0.07,0.125,0.195,-0.028,-0.133,0.16,-0.095,-0.08,-0.115,-0.08,-0.025,-0.04
-0.07,0.125,0.195,-0.028,-0.133,0.16,-0.095,-0.08,-0.119,-0.08,-0.025,-0.044
-0.069,0.126,0.195,-0.029,-0.133,0.16,-0.092,-0.083,-0.123,-0.083,-0.028,-0.045
-0.072,0.123,0.195,-0.026,-0.134,0.159,-0.089,-0.085,-0.128,-0.085,-0.03,-0.045
-0.075,0.12,0.195,-0.023,-0.135,0.157,-0.09,-0.086,-0.13,-0.086,-0.031,-0.044
-0.075,0.12,0.195,-0.023,-0.135,0.157,-0.09,-0.09,-0.13,-0.09,-0.035,-0.04
-0.075,0.12,0.195,-0.023,-0.135,0.157,-0.086,-0.09,-0.134,-0.09,-0.035,-0.04
-0.075,0.12,0.195,-0.023,-0.135,0.157,-0.084,-0.093,-0.135,-0.093,-0.035,-0.04
-0.077,0.118,0.195,-0.021,-0.136,0.156,-0.086,-0.096,-0.137,-0.096,-0.035,-0.04
-0.081,0.115,0.195,-0.017,-0.139,0.155,-0.084,-0.095,-0.141,-0.094,-0.035,-0.04
-0.08,0.115,0.195,-0.018,-0.138,0.155,-0.08,-0.095,-0.14,-0.09,-0.035,-0.04
-0.077,0.115,0.193,-0.02,-0.135,0.154,-0.08,-0.095,-0.136,-0.09,-0.035,-0.04
-0.1,0.112,0.211,-0.006,-0.156,0.162,-0.081,-0.092,-0.135,-0.09,-0.035,-0.04
-0.11,0.11,0.219,0.0,-0.164,0.164,-0.078,-0.09,-0.135,-0.09,-0.035,-0.04
-0.098,0.11,0.208,-0.006,-0.153,0.159,-0.075,-0.089,-0.135,-0.09,-0.035,-0.04
-0.095,0.11,0.205,-0.008,-0.15,0.157,-0.075,-0.085,-0.135,-0.09,-0.035,-0.04
-0.086,0.11,0.197,-0.013,-0.142,0.153,-0.075,-0.085,-0.135,-0.09,-0.035,-0.04
-0.085,0.107,0.192,-0.011,-0.139,0.149,-0.072,-0.086,-0.132,-0.091,-0.035,-0.04
-0.082,0.105,0.186,-0.011,-0.135,0.145,-0.069,-0.083,-0.129,-0.088,-0.035,-0.04
-0.073,0.105,0.178,-0.016,-0.126,0.141,-0.071,-0.08,-0.13,-0.085,-0.035,-0.04
-0.07,0.105,0.175,-0.018,-0.123,0.14,-0.07,-0.08,-0.13,-0.085,-0.035,-0.04
-0.071,0.106,0.177,-0.018,-0.124,0.141,-0.062,-0.076,-0.129,-0.085,-0.035,-0.039
-0.099,0.099,0.198,-0.001,-0.149,0.148,-0.057,-0.073,-0.132,-0.085,-0.034,-0.043
-0.108,0.093,0.201,0.007,-0.155,0.147,-0.05,-0.08,-0.121,-0.085,-0.039,-0.044
-0.092,0.088,0.18,0.002,-0.136,0.134,-0.045,-0.065,-0.101,-0.085,-0.046,-0.047
-0.09,0.08,0.17,0.005,-0.13,0.125,-0.04,-0.005,-0.08,-0.085,-0.055,-0.065
-0.09,0.076,0.166,0.007,-0.128,0.121,-0.005,0.045,-0.017,-0.087,-0.077,-0.089
-0.092,0.07,0.162,0.011,-0.127,0.115,0.028,0.12,0.044,-0.066,-0.076,-0.11
-0.1,0.06,0.16,0.02,-0.13,0.109,0.067,0.209,0.114,-0.037,-0.067,-0.113
-0.095,0.064,0.16,0.015,-0.127,0.112,0.108,0.307,0.211,-0.005,-0.063,-0.103
-0.06,0.095,0.155,-0.018,-0.108,0.125,0.13,0.425,0.32,0.04,-0.055,-0.1
-0.028,0.122,0.15,-0.047,-0.09,0.135,0.141,0.527,0.422,0.08,-0.055,-0.091
-0.025,0.127,0.152,-0.051,-0.088,0.139,0.123,0.529,0.425,0.119,-0.014,-0.09
-0.002,0.141,0.143,-0.07,-0.072,0.142,0.103,0.399,0.309,0.162,0.038,-0.069
0.054,0.191,0.137,-0.123,-0.042,0.164,0.073,0.183,0.136,0.214,0.101,-0.006
0.1,0.27,0.17,-0.185,-0.035,0.22,-0.01,-0.085,-0.045,0.285,0.215,0.085
0.152,0.373,0.221,-0.262,-0.035,0.297,-0.14,-0.455,-0.26,0.399,0.351,0.201
0.272,0.518,0.246,-0.395,0.013,0.382,-0.347,-0.883,-0.471,0.561,0.523,0.352
0.36,0.68,0.321,-0.52,0.019,0.501,-0.544,-1.264,-0.636,0.786,0.736,0.535
0.408,0.85,0.442,-0.63,-0.017,0.646,-0.718,-1.593,-0.804,1.025,0.967,0.736
0.5,1.035,0.535,-0.768,-0.018,0.785,-0.92,-1.935,-1.03,1.23,1.19,0.935
0.541,1.202,0.661,-0.871,-0.06,0.932,-1.098,-2.265,-1.257,1.457,1.408,1.11
0.522,1.346,0.825,-0.934,-0.151,1.085,-1.307,-2.547,-1.495,1.68,1.604,1.264
0.525,1.466,0.94,-0.996,-0.208,1.203,-1.524,-2.83,-1.712,1.888,1.768,1.383
0.535,1.518,0.982,-1.027,-0.224,1.25,-1.673,-3.047,-1.857,2.071,1.863,1.434
0.46,1.455,0.995,-0.958,-0.268,1.225,-1.725,-3.085,-1.91,2.16,1.845,1.405
0.328,1.28,0.952,-0.804,-0.312,1.115,-1.689,-3.008,-1.906,2.029,1.698,1.303
0.207,0.973,0.766,-0.59,-0.28,0.869,-1.522,-2.811,-1.946,1.567,1.309,1.044
0.087,0.625,0.538,-0.357,-0.226,0.582,-1.304,-2.559,-1.982,0.933,0.817,0.724
-0.077,0.362,0.439,-0.143,-0.259,0.401,-1.162,-2.36,-2.078,0.236,0.385,0.452
-0.25,0.23,0.48,0.01,-0.365,0.355,-1.115,-2.25,-2.28,-0.455,0.055,0.245
-0.32,0.166,0.486,0.076,-0.403,0.326,-1.063,-2.144,-2.305,-0.874,-0.161,0.107
-0.397,0.092,0.489,0.152,-0.443,0.29,-1.023,-1.987,-2.147,-1.07,-0.323,-0.022
-0.387,0.078,0.465,0.154,-0.426,0.272,-1.013,-1.801,-1.888,-1.051,-0.362,-0.093
-0.29,0.115,0.405,0.088,-0.347,0.26,-0.961,-1.567,-1.589,-0.877,-0.309,-0.092
-0.24,0.115,0.355,0.062,-0.298,0.235,-0.82,-1.27,-1.295,-0.695,-0.28,-0.08
-0.188,0.139,0.326,0.024,-0.257,0.232,-0.697,-1.027,-1.048,-0.554,-0.237,-0.072
-0.146,0.154,0.3,-0.004,-0.224,0.227,-0.587,-0.827,-0.85,-0.448,-0.191,-0.065
-0.13,0.154,0.284,-0.012,-0.207,0.219,-0.454,-0.615,-0.67,-0.35,-0.15,-0.054
-0.113,0.166,0.278,-0.026,-0.196,0.222,-0.339,-0.427,-0.509,-0.269,-0.11,-0.043
-0.08,0.19,0.27,-0.055,-0.175,0.23,-0.285,-0.32,-0.395,-0.22,-0.075,-0.035
-0.075,0.187,0.262,-0.056,-0.169,0.224,-0.229,-0.234,-0.303,-0.165,-0.066,-0.026
-0.073,0.181,0.254,-0.054,-0.164,0.217,-0.181,-0.166,-0.211,-0.14,-0.059,-0.024
-0.068,0.178,0.246,-0.055,-0.157,0.212,-0.136,-0.102,-0.154,-0.128,-0.053,-0.025
-0.064,0.174,0.238,-0.055,-0.151,0.205,-0.098,-0.051,-0.128,-0.111,-0.049,-0.025
-0.06,0.17,0.23,-0.055,-0.145,0.2,-0.08,-0.03,-0.095,-0.095,-0.04,-0.025
-0.06,0.166,0.226,-0.053,-0.143,0.196,-0.063,-0.01,-0.074,-0.082,-0.032,-0.025
-0.059,0.162,0.222,-0.052,-0.141,0.192,-0.053,0.008,-0.055,-0.076,-0.027,-0.025
-0.062,0.158,0.22,-0.048,-0.141,0.189,-0.046,0.021,-0.036,-0.075,-0.023,-0.024
-0.065,0.155,0.22,-0.045,-0.143,0.187,-0.039,0.034,-0.021,-0.074,-0.02,-0.026
-0.06,0.155,0.215,-0.048,-0.138,0.185,-0.035,0.05,-0.005,-0.07,-0.02,-0.035
-0.055,0.155,0.21,-0.05,-0.133,0.182,-0.027,0.062,0.011,-0.07,-0.02,-0.04
-0.056,0.155,0.211,-0.05,-0.134,0.182,-0.019,0.072,0.025,-0.067,-0.017,-0.037
-0.052,0.155,0.207,-0.052,-0.13,0.18,-0.01,0.077,0.033,-0.065,-0.015,-0.034
-0.043,0.155,0.198,-0.056,-0.121,0.176,-0.013,0.082,0.035,-0.064,-0.015,-0.035
-0.04,0.155,0.195,-0.058,-0.118,0.175,-0.03,0.09,0.035,-0.06,-0.015,-0.035
-0.037,0.155,0.192,-0.059,-0.115,0.173,-0.027,0.095,0.04,-0.06,-0.015,-0.031
-0.026,0.155,0.181,-0.065,-0.104,0.168,-0.024,0.094,0.039,-0.057,-0.012,-0.03
-0.048,0.155,0.203,-0.054,-0.126,0.179,-0.026,0.099,0.047,-0.055,-0.009,-0.03
-0.085,0.155,0.24,-0.035,-0.163,0.198,-0.024,0.106,0.063,-0.054,-0.01,-0.03
-0.085,0.155,0.24,-0.035,-0.163,0.197,-0.02,0.11,0.07,-0.05,-0.01,-0.03
-0.085,0.155,0.24,-0.035,-0.163,0.197,-0.02,0.118,0.074,-0.05,-0.01,-0.026
-0.085,0.155,0.24,-0.035,-0.163,0.197,-0.02,0.123,0.079,-0.047,-0.007,-0.025
-0.085,0.155,0.24,-0.035,-0.163,0.197,-0.02,0.127,0.08,-0.045,-0.004,-0.025
-0.085,0.155,0.24,-0.035,-0.163,0.197,-0.019,0.13,0.081,-0.044,-0.005,-0.025
-0.085,0.155,0.24,-0.035,-0.163,0.197,-0.015,0.13,0.09,-0.04,-0.005,-0.025
-0.077,0.163,0.24,-0.043,-0.159,0.201,-0.015,0.13,0.094,-0.04,-0.001,-0.021
-0.071,0.169,0.24,-0.049,-0.155,0.205,-0.016,0.128,0.098,-0.037,0.0,-0.019
-0.072,0.168,0.24,-0.048,-0.156,0.204,-0.013,0.137,0.1,-0.035,0.0,-0.021
-0.076,0.164,0.24,-0.044,-0.158,0.202,-0.01,0.153,0.101,-0.034,0.0,-0.019
-0.075,0.165,0.24,-0.045,-0.158,0.202,-0.01,0.155,0.105,-0.03,0.0,-0.015
-0.075,0.165,0.24,-0.045,-0.158,0.202,-0.01,0.155,0.105,-0.03,0.004,-0.015
-0.077,0.163,0.24,-0.043,-0.159,0.201,-0.01,0.155,0.108,-0.027,0.005,-0.015
-0.068,0.172,0.24,-0.052,-0.155,0.205,-0.011,0.155,0.112,-0.025,0.005,-0.015
-0.052,0.188,0.24,-0.068,-0.146,0.214,-0.016,0.155,0.117,-0.024,0.005,-0.014
-0.045,0.195,0.24,-0.075,-0.143,0.217,-0.02,0.155,0.125,-0.02,0.005,-0.01
-0.041,0.199,0.24,-0.079,-0.14,0.22,-0.02,0.155,0.129,-0.02,0.009,-0.01
-0.039,0.201,0.24,-0.081,-0.14,0.22,-0.022,0.152,0.133,-0.017,0.01,-0.01
-0.041,0.199,0.24,-0.079,-0.14,0.219,-0.027,0.149,0.136,-0.015,0.012,-0.01
-0.038,0.202,0.24,-0.082,-0.139,0.221,-0.03,0.15,0.135,-0.014,0.015,-0.009
-0.025,0.215,0.24,-0.095,-0.133,0.227,-0.03,0.15,0.135,-0.01,0.015,-0.005
-0.018,0.219,0.237,-0.101,-0.127,0.228,-0.03,0.15,0.139,-0.01,0.019,-0.005
-0.037,0.223,0.26,-0.093,-0.149,0.241,-0.03,0.151,0.141,-0.005,0.02,-0.002
-0.042,0.227,0.27,-0.093,-0.156,0.248,-0.03,0.148,0.139,0.005,0.022,0.0
-0.028,0.23,0.258,-0.101,-0.143,0.244,-0.03,0.153,0.142,0.011,0.026,0.001
-0.025,0.23,0.255,-0.103,-0.14,0.242,-0.03,0.17,0.155,0.015,0.03,0.005
-0.017,0.23,0.247,-0.107,-0.132,0.238,-0.03,0.176,0.16,0.023,0.038,0.005
-0.012,0.23,0.242,-0.109,-0.127,0.236,-0.03,0.172,0.158,0.032,0.043,0.004
-0.006,0.23,0.236,-0.112,-0.121,0.233,-0.03,0.187,0.167,0.037,0.047,0.007
0.001,0.23,0.229,-0.116,-0.114,0.229,-0.03,0.207,0.182,0.041,0.05,0.01
0.005,0.23,0.225,-0.118,-0.11,0.227,-0.03,0.2,0.185,0.045,0.05,0.01
0.012,0.23,0.218,-0.121,-0.103,0.224,-0.03,0.199,0.189,0.045,0.054,0.014
-0.009,0.23,0.239,-0.111,-0.124,0.234,-0.029,0.2,0.194,0.048,0.055,0.015
-0.022,0.23,0.252,-0.104,-0.137,0.241,-0.032,0.2,0.194,0.05,0.057,0.017
-0.013,0.23,0.243,-0.109,-0.128,0.236,-0.035,0.2,0.197,0.051,0.06,0.021
-0.01,0.23,0.24,-0.11,-0.125,0.235,-0.035,0.2,0.21,0.055,0.06,0.02
-0.01,0.226,0.236,-0.108,-0.124,0.231,-0.043,0.2,0.215,0.059,0.065,0.02
-0.008,0.224,0.232,-0.109,-0.12,0.228,-0.049,0.204,0.213,0.062,0.063,0.023
-0.002,0.226,0.228,-0.112,-0.116,0.226,-0.05,0.218,0.222,0.071,0.072,0.027
0.0,0.224,0.224,-0.113,-0.112,0.224,-0.05,0.232,0.237,0.082,0.088,0.031
0.0,0.22,0.22,-0.11,-0.11,0.22,-0.05,0.235,0.24,0.085,0.09,0.035
0.004,0.22,0.216,-0.112,-0.106,0.217,-0.054,0.235,0.243,0.088,0.09,0.039
0.006,0.221,0.215,-0.114,-0.104,0.217,-0.056,0.238,0.251,0.099,0.093,0.044
0.003,0.218,0.215,-0.111,-0.106,0.216,-0.054,0.239,0.257,0.108,0.095,0.045
-0.001,0.214,0.215,-0.107,-0.109,0.215,-0.056,0.242,0.262,0.111,0.095,0.046
0.0,0.215,0.215,-0.108,-0.108,0.215,-0.06,0.255,0.27,0.115,0.1,0.055
0.015,0.23,0.215,-0.123,-0.1,0.223,-0.06,0.264,0.278,0.12,0.105,0.059
0.034,0.248,0.215,-0.142,-0.091,0.232,-0.06,0.267,0.285,0.121,0.103,0.063
0.043,0.258,0.215,-0.151,-0.086,0.237,-0.06,0.278,0.296,0.135,0.113,0.065
0.046,0.26,0.214,-0.153,-0.084,0.237,-0.06,0.292,0.307,0.152,0.127,0.065
0.05,0.26,0.21,-0.155,-0.08,0.235,-0.06,0.295,0.31,0.15,0.125,0.065
0.05,0.26,0.21,-0.155,-0.08,0.235,-0.059,0.299,0.309,0.15,0.125,0.065
0.051,0.261,0.21,-0.156,-0.08,0.235,-0.066,0.304,0.314,0.151,0.125,0.065
0.048,0.258,0.21,-0.153,-0.081,0.234,-0.072,0.304,0.314,0.148,0.125,0.065
0.054,0.264,0.21,-0.159,-0.078,0.237,-0.077,0.308,0.319,0.153,0.125,0.066
0.075,0.285,0.21,-0.18,-0.068,0.247,-0.085,0.325,0.34,0.17,0.125,0.07
0.084,0.294,0.21,-0.189,-0.063,0.251,-0.089,0.322,0.349,0.171,0.124,0.074
0.087,0.298,0.211,-0.193,-0.062,0.254,-0.093,0.316,0.352,0.168,0.131,0.079
0.094,0.302,0.208,-0.198,-0.057,0.255,-0.095,0.332,0.36,0.177,0.138,0.08
0.102,0.306,0.205,-0.204,-0.052,0.255,-0.095,0.353,0.374,0.193,0.141,0.081
0.105,0.31,0.205,-0.208,-0.05,0.257,-0.095,0.355,0.39,0.2,0.15,0.09
0.106,0.311,0.205,-0.209,-0.05,0.257,-0.095,0.371,0.399,0.204,0.171,0.107
0.103,0.308,0.205,-0.206,-0.051,0.256,-0.097,0.383,0.403,0.208,0.18,0.115
0.114,0.319,0.205,-0.217,-0.046,0.262,-0.103,0.386,0.408,0.212,0.179,0.115
0.134,0.339,0.205,-0.237,-0.036,0.272,-0.105,0.393,0.419,0.217,0.181,0.115
0.14,0.345,0.205,-0.243,-0.033,0.275,-0.11,0.41,0.435,0.225,0.185,0.115
0.141,0.347,0.206,-0.244,-0.033,0.276,-0.135,0.415,0.44,0.23,0.186,0.115
0.169,0.368,0.199,-0.269,-0.015,0.283,-0.145,0.414,0.44,0.228,0.183,0.116
0.159,0.386,0.227,-0.273,-0.034,0.306,-0.146,0.435,0.457,0.239,0.192,0.113
0.129,0.392,0.263,-0.26,-0.067,0.327,-0.151,0.465,0.486,0.259,0.207,0.118
0.155,0.4,0.245,-0.278,-0.045,0.322,-0.155,0.47,0.5,0.265,0.21,0.135
0.168,0.404,0.236,-0.287,-0.034,0.32,-0.154,0.473,0.504,0.272,0.214,0.14
0.178,0.408,0.229,-0.294,-0.026,0.318,-0.161,0.484,0.512,0.287,0.217,0.142
0.191,0.412,0.221,-0.302,-0.015,0.316,-0.168,0.493,0.529,0.299,0.226,0.148
0.204,0.416,0.213,-0.31,-0.005,0.314,-0.17,0.496,0.542,0.308,0.237,0.15
0.215,0.42,0.205,-0.318,0.005,0.312,-0.175,0.51,0.55,0.325,0.245,0.15
0.22,0.419,0.2,-0.32,0.01,0.309,-0.188,0.532,0.567,0.342,0.262,0.157
0.252,0.425,0.173,-0.339,0.039,0.299,-0.192,0.536,0.575,0.351,0.267,0.168
0.247,0.434,0.187,-0.34,0.03,0.31,-0.188,0.553,0.589,0.362,0.279,0.183
0.219,0.443,0.224,-0.331,-0.003,0.334,-0.193,0.579,0.608,0.379,0.298,0.198
0.245,0.46,0.215,-0.353,0.015,0.337,-0.21,0.58,0.615,0.39,0.305,0.205
0.269,0.481,0.212,-0.376,0.028,0.346,-0.215,0.58,0.623,0.398,0.313,0.209
0.26,0.492,0.231,-0.376,0.014,0.361,-0.215,0.58,0.629,0.403,0.319,0.212
0.259,0.5,0.241,-0.38,0.009,0.37,-0.232,0.579,0.631,0.406,0.321,0.219
0.28,0.514,0.234,-0.397,0.023,0.373,-0.253,0.581,0.637,0.412,0.327,0.226
0.29,0.525,0.235,-0.408,0.027,0.38,-0.255,0.59,0.645,0.425,0.34,0.23
0.292,0.528,0.235,-0.411,0.029,0.381,-0.266,0.595,0.65,0.438,0.349,0.234
0.31,0.545,0.235,-0.428,0.037,0.39,-0.284,0.592,0.651,0.444,0.351,0.236
0.325,0.56,0.235,-0.443,0.044,0.397,-0.29,0.607,0.665,0.464,0.366,0.249
0.325,0.56,0.235,-0.443,0.045,0.397,-0.284,0.626,0.681,0.489,0.389,0.269
0.325,0.56,0.235,-0.443,0.045,0.397,-0.285,0.615,0.675,0.49,0.395,0.28
0.325,0.56,0.235,-0.443,0.045,0.397,-0.286,0.61,0.67,0.488,0.398,0.284
0.324,0.559,0.235,-0.442,0.044,0.396,-0.281,0.607,0.67,0.503,0.413,0.288
0.33,0.565,0.235,-0.448,0.047,0.4,-0.3,0.603,0.669,0.51,0.422,0.29
0.343,0.578,0.235,-0.461,0.053,0.407,-0.33,0.599,0.664,0.504,0.42,0.29
0.35,0.585,0.235,-0.468,0.057,0.41,-0.335,0.595,0.66,0.505,0.42,0.29
0.353,0.588,0.235,-0.471,0.059,0.411,-0.339,0.592,0.661,0.506,0.42,0.288
0.367,0.602,0.235,-0.485,0.066,0.418,-0.341,0.582,0.652,0.502,0.419,0.303
0.379,0.614,0.235,-0.497,0.072,0.424,-0.339,0.569,0.64,0.499,0.424,0.31
0.38,0.615,0.235,-0.498,0.072,0.425,-0.342,0.557,0.633,0.5,0.43,0.304
0.38,0.615,0.235,-0.498,0.072,0.425,-0.355,0.545,0.625,0.5,0.425,0.305
0.375,0.618,0.243,-0.497,0.066,0.43,-0.359,0.534,0.618,0.496,0.425,0.301
0.382,0.63,0.248,-0.506,0.066,0.439,-0.363,0.513,0.601,0.495,0.426,0.299
0.383,0.635,0.252,-0.509,0.065,0.443,-0.367,0.487,0.581,0.495,0.423,0.301
0.373,0.629,0.256,-0.502,0.059,0.442,-0.371,0.464,0.566,0.496,0.419,0.299
0.37,0.63,0.26,-0.5,0.055,0.445,-0.375,0.445,0.55,0.495,0.42,0.295
0.368,0.631,0.263,-0.499,0.053,0.447,-0.38,0.43,0.535,0.483,0.421,0.295
0.382,0.627,0.245,-0.505,0.068,0.436,-0.375,0.408,0.513,0.474,0.412,0.292
0.36,0.624,0.264,-0.492,0.047,0.444,-0.367,0.383,0.488,0.466,0.4,0.289
0.32,0.626,0.306,-0.473,0.007,0.465,-0.364,0.358,0.464,0.459,0.393,0.291
0.32,0.625,0.305,-0.473,0.007,0.465,-0.36,0.33,0.44,0.45,0.385,0.29
0.305,0.609,0.305,-0.457,0.0,0.457,-0.356,0.306,0.421,0.426,0.378,0.275
0.291,0.596,0.305,-0.444,-0.008,0.45,-0.352,0.28,0.392,0.405,0.358,0.258
0.277,0.582,0.305,-0.43,-0.014,0.443,-0.349,0.25,0.36,0.384,0.334,0.242
0.262,0.567,0.305,-0.415,-0.022,0.435,-0.342,0.225,0.334,0.359,0.316,0.227
0.25,0.555,0.305,-0.403,-0.028,0.43,-0.325,0.21,0.315,0.335,0.305,0.215
0.234,0.539,0.305,-0.387,-0.036,0.422,-0.313,0.194,0.295,0.315,0.294,0.199
0.218,0.523,0.305,-0.371,-0.044,0.414,-0.298,0.178,0.272,0.296,0.272,0.186
0.202,0.507,0.305,-0.355,-0.052,0.406,-0.284,0.163,0.248,0.273,0.25,0.172
0.186,0.491,0.305,-0.339,-0.06,0.398,-0.272,0.145,0.223,0.249,0.229,0.156
0.17,0.475,0.305,-0.323,-0.068,0.39,-0.26,0.12,0.195,0.225,0.205,0.14
0.155,0.459,0.305,-0.307,-0.075,0.382,-0.252,0.099,0.167,0.197,0.181,0.12
0.134,0.442,0.308,-0.288,-0.088,0.375,-0.244,0.083,0.139,0.169,0.157,0.099
0.12,0.43,0.31,-0.275,-0.096,0.37,-0.237,0.067,0.112,0.142,0.134,0.082
0.113,0.423,0.311,-0.268,-0.1,0.367,-0.226,0.051,0.09,0.12,0.116,0.066
0.1,0.415,0.315,-0.258,-0.108,0.365,-0.21,0.035,0.075,0.1,0.1,0.05
0.091,0.407,0.316,-0.25,-0.113,0.361,-0.198,0.019,0.063,0.084,0.088,0.034
0.088,0.4,0.312,-0.244,-0.112,0.356,-0.183,0.006,0.048,0.068,0.073,0.021
0.078,0.387,0.309,-0.233,-0.116,0.348,-0.168,-0.006,0.034,0.051,0.059,0.009
0.061,0.372,0.31,-0.216,-0.125,0.341,-0.158,-0.017,0.021,0.037,0.046,-0.003
0.05,0.36,0.31,-0.205,-0.13,0.335,-0.15,-0.025,0.0,0.025,0.025,-0.015
0.037,0.344,0.307,-0.19,-0.135,0.326,-0.142,-0.037,-0.021,0.001,0.004,-0.027
0.001,0.331,0.33,-0.166,-0.165,0.33,-0.134,-0.049,-0.03,-0.02,-0.01,-0.036
-0.021,0.319,0.34,-0.149,-0.181,0.329,-0.126,-0.06,-0.045,-0.041,-0.019,-0.046
-0.02,0.308,0.328,-0.144,-0.174,0.318,-0.118,-0.066,-0.063,-0.058,-0.027,-0.057
-0.025,0.3,0.325,-0.138,-0.175,0.312,-0.11,-0.065,-0.065,-0.065,-0.035,-0.065
-0.025,0.292,0.317,-0.134,-0.171,0.304,-0.102,-0.065,-0.064,-0.069,-0.043,-0.077
-0.028,0.284,0.312,-0.128,-0.17,0.298,-0.097,-0.065,-0.071,-0.076,-0.051,-0.087
-0.03,0.276,0.306,-0.123,-0.168,0.291,-0.093,-0.065,-0.077,-0.082,-0.059,-0.092
-0.031,0.267,0.299,-0.118,-0.165,0.283,-0.089,-0.065,-0.082,-0.087,-0.067,-0.096
-0.035,0.26,0.295,-0.113,-0.165,0.277,-0.085,-0.065,-0.09,-0.1,-0.07,-0.1
-0.027,0.264,0.291,-0.119,-0.159,0.277,-0.081,-0.065,-0.094,-0.108,-0.069,-0.104
-0.024,0.266,0.29,-0.121,-0.157,0.277,-0.077,-0.063,-0.098,-0.116,-0.079,-0.105
-0.025,0.265,0.29,-0.12,-0.158,0.277,-0.075,-0.073,-0.1,-0.122,-0.089,-0.106
-0.025,0.265,0.29,-0.12,-0.158,0.277,-0.075,-0.086,-0.101,-0.126,-0.09,-0.111
-0.025,0.265,0.29,-0.12,-0.158,0.277,-0.075,-0.08,-0.105,-0.13,-0.09,-0.115
-0.021,0.265,0.286,-0.122,-0.154,0.275,-0.075,-0.08,-0.105,-0.13,-0.094,-0.119
-0.019,0.265,0.285,-0.123,-0.152,0.275,-0.075,-0.08,-0.108,-0.133,-0.095,-0.12
-0.021,0.265,0.285,-0.122,-0.153,0.275,-0.075,-0.08,-0.11,-0.135,-0.097,-0.122
-0.019,0.266,0.285,-0.124,-0.152,0.275,-0.075,-0.08,-0.111,-0.136,-0.1,-0.125
-0.015,0.27,0.285,-0.128,-0.15,0.277,-0.075,-0.08,-0.115,-0.14,-0.1,-0.125
-0.015,0.27,0.285,-0.128,-0.15,0.277,-0.075,-0.08,-0.115,-0.139,-0.104,-0.129
-0.012,0.27,0.282,-0.129,-0.147,0.276,-0.075,-0.08,-0.118,-0.146,-0.106,-0.13
-0.009,0.27,0.28,-0.13,-0.145,0.275,-0.075,-0.08,-0.121,-0.153,-0.104,-0.132
-0.01,0.27,0.28,-0.13,-0.145,0.275,-0.075,-0.08,-0.12,-0.156,-0.106,-0.135
-0.01,0.27,0.28,-0.13,-0.145,0.275,-0.075,-0.08,-0.12,-0.16,-0.11,-0.135
-0.011,0.27,0.281,-0.13,-0.146,0.276,-0.075,-0.08,-0.12,-0.16,-0.11,-0.139
-0.006,0.269,0.276,-0.132,-0.141,0.273,-0.075,-0.081,-0.12,-0.159,-0.109,-0.14
-0.024,0.272,0.296,-0.124,-0.16,0.284,-0.075,-0.078,-0.12,-0.162,-0.112,-0.142
-0.047,0.275,0.323,-0.114,-0.185,0.299,-0.075,-0.075,-0.12,-0.165,-0.116,-0.145
-0.04,0.275,0.315,-0.118,-0.178,0.295,-0.075,-0.075,-0.12,-0.165,-0.12,-0.145
-0.039,0.275,0.314,-0.118,-0.177,0.295,-0.075,-0.075,-0.12,-0.165,-0.124,-0.149
-0.04,0.275,0.315,-0.118,-0.178,0.295,-0.075,-0.075,-0.12,-0.165,-0.129,-0.151
-0.04,0.275,0.315,-0.118,-0.178,0.295,-0.075,-0.075,-0.12,-0.165,-0.129,-0.148
-0.04,0.275,0.315,-0.118,-0.178,0.295,-0.075,-0.075,-0.12,-0.165,-0.124,-0.145
-0.04,0.275,0.315,-0.118,-0.178,0.295,-0.075,-0.075,-0.12,-0.165,-0.125,-0.145
-0.042,0.275,0.317,-0.117,-0.18,0.296,-0.075,-0.075,-0.12,-0.165,-0.125,-0.145
-0.03,0.274,0.304,-0.123,-0.167,0.289,-0.075,-0.075,-0.12,-0.165,-0.126,-0.145
-0.044,0.277,0.322,-0.117,-0.183,0.299,-0.075,-0.075,-0.12,-0.165,-0.123,-0.145
-0.074,0.28,0.353,-0.103,-0.213,0.316,-0.075,-0.075,-0.12,-0.165,-0.12,-0.145
-0.065,0.28,0.345,-0.108,-0.205,0.312,-0.075,-0.075,-0.12,-0.165,-0.12,-0.145
-0.048,0.296,0.344,-0.125,-0.196,0.32,-0.075,-0.075,-0.12,-0.165,-0.12,-0.145
-0.041,0.305,0.345,-0.133,-0.193,0.325,-0.072,-0.078,-0.12,-0.165,-0.121,-0.145
-0.04,0.305,0.345,-0.133,-0.193,0.325,-0.07,-0.081,-0.12,-0.165,-0.118,-0.145
-0.04,0.305,0.345,-0.133,-0.193,0.325,-0.069,-0.08,-0.12,-0.165,-0.115,-0.145
-0.04,0.305,0.345,-0.133,-0.193,0.325,-0.065,-0.08,-0.12,-0.165,-0.115,-0.145
-0.043,0.305,0.348,-0.131,-0.196,0.327,-0.065,-0.08,-0.12,-0.165,-0.115,-0.145
-0.019,0.305,0.324,-0.143,-0.172,0.315,-0.063,-0.08,-0.12,-0.165,-0.115,-0.142
-0.032,0.304,0.336,-0.136,-0.184,0.319,-0.058,-0.08,-0.12,-0.165,-0.115,-0.139
-0.069,0.307,0.376,-0.119,-0.223,0.341,-0.063,-0.08,-0.12,-0.166,-0.114,-0.14
-0.06,0.315,0.375,-0.128,-0.218,0.345,-0.08,-0.08,-0.12,-0.17,-0.11,-0.14
-0.054,0.319,0.373,-0.133,-0.213,0.345,-0.081,-0.08,-0.12,-0.174,-0.11,-0.14
-0.062,0.326,0.388,-0.132,-0.225,0.357,-0.08,-0.08,-0.123,-0.175,-0.11,-0.14
-0.063,0.332,0.395,-0.135,-0.229,0.363,-0.08,-0.08,-0.126,-0.175,-0.11,-0.14
-0.053,0.336,0.389,-0.141,-0.222,0.362,-0.08,-0.08,-0.125,-0.175,-0.109,-0.14
-0.05,0.34,0.39,-0.145,-0.22,0.365,-0.08,-0.08,-0.125,-0.175,-0.105,-0.14
-0.05,0.34,0.391,-0.145,-0.22,0.365,-0.08,-0.08,-0.125,-0.175,-0.105,-0.14
-0.047,0.34,0.387,-0.147,-0.217,0.363,-0.08,-0.08,-0.124,-0.175,-0.105,-0.14
-0.044,0.34,0.385,-0.148,-0.214,0.362,-0.08,-0.08,-0.127,-0.175,-0.105,-0.14
-0.045,0.34,0.385,-0.148,-0.215,0.362,-0.08,-0.08,-0.13,-0.175,-0.105,-0.14
-0.045,0.34,0.385,-0.148,-0.215,0.362,-0.08,-0.08,-0.13,-0.175,-0.105,-0.14
-0.041,0.344,0.385,-0.152,-0.214,0.365,-0.08,-0.08,-0.13,-0.175,-0.109,-0.144
-0.036,0.345,0.382,-0.155,-0.21,0.363,-0.078,-0.08,-0.13,-0.175,-0.113,-0.148
-0.035,0.345,0.379,-0.155,-0.207,0.361,-0.086,-0.08,-0.13,-0.175,-0.117,-0.152
-0.035,0.345,0.38,-0.155,-0.208,0.362,-0.095,-0.081,-0.131,-0.175,-0.12,-0.155
-0.035,0.345,0.38,-0.155,-0.208,0.362,-0.09,-0.085,-0.135,-0.175,-0.12,-0.155
-0.033,0.343,0.376,-0.155,-0.205,0.359,-0.09,-0.085,-0.135,-0.175,-0.124,-0.155
-0.014,0.361,0.375,-0.174,-0.194,0.367,-0.09,-0.084,-0.134,-0.175,-0.125,-0.155
-0.004,0.371,0.375,-0.184,-0.19,0.373,-0.09,-0.087,-0.137,-0.175,-0.125,-0.155
-0.011,0.364,0.375,-0.177,-0.194,0.37,-0.09,-0.09,-0.14,-0.175,-0.125,-0.155
-0.01,0.365,0.375,-0.178,-0.193,0.37,-0.09,-0.09,-0.14,-0.175,-0.125,-0.155
-0.006,0.365,0.371,-0.18,-0.189,0.368,-0.09,-0.089,-0.14,-0.175,-0.125,-0.155
-0.005,0.365,0.37,-0.18,-0.188,0.367,-0.09,-0.093,-0.143,-0.175,-0.125,-0.155
-0.005,0.365,0.37,-0.18,-0.188,0.367,-0.09,-0.095,-0.146,-0.175,-0.125,-0.155
-0.005,0.365,0.37,-0.18,-0.188,0.367,-0.09,-0.096,-0.145,-0.175,-0.125,-0.155
-0.005,0.365,0.37,-0.18,-0.188,0.367,-0.09,-0.1,-0.145,-0.175,-0.125,-0.155
-0.006,0.365,0.371,-0.179,-0.189,0.368,-0.09,-0.1,-0.149,-0.175,-0.125,-0.155
0.0,0.365,0.365,-0.183,-0.183,0.364,-0.09,-0.103,-0.151,-0.175,-0.125,-0.155
-0.023,0.365,0.388,-0.171,-0.206,0.376,-0.09,-0.106,-0.149,-0.175,-0.125,-0.155
-0.052,0.365,0.417,-0.157,-0.235,0.391,-0.09,-0.105,-0.151,-0.176,-0.125,-0.155
-0.04,0.365,0.405,-0.163,-0.223,0.385,-0.09,-0.105,-0.155,-0.18,-0.125,-0.155
-0.043,0.357,0.4,-0.157,-0.222,0.378,-0.09,-0.105,-0.155,-0.184,-0.125,-0.155
-0.046,0.351,0.398,-0.153,-0.222,0.374,-0.09,-0.105,-0.158,-0.189,-0.124,-0.155
-0.043,0.348,0.391,-0.153,-0.217,0.369,-0.09,-0.105,-0.16,-0.19,-0.127,-0.155
-0.04,0.344,0.384,-0.153,-0.212,0.364,-0.09,-0.106,-0.161,-0.191,-0.13,-0.155
-0.04,0.34,0.38,-0.15,-0.21,0.36,-0.09,-0.11,-0.165,-0.195,-0.13,-0.155
-0.04,0.336,0.376,-0.149,-0.208,0.356,-0.09,-0.111,-0.165,-0.195,-0.13,-0.155
-0.043,0.332,0.375,-0.145,-0.209,0.353,-0.09,-0.107,-0.168,-0.195,-0.13,-0.155
-0.047,0.328,0.375,-0.141,-0.211,0.351,-0.09,-0.105,-0.17,-0.195,-0.13,-0.155
-0.05,0.325,0.375,-0.138,-0.213,0.35,-0.09,-0.105,-0.171,-0.195,-0.13,-0.155
-0.05,0.325,0.375,-0.138,-0.213,0.35,-0.09,-0.105,-0.175,-0.195,-0.13,-0.155
-0.05,0.325,0.375,-0.138,-0.213,0.35,-0.09,-0.106,-0.175,-0.199,-0.134,-0.155
-0.05,0.325,0.375,-0.138,-0.213,0.35,-0.087,-0.099,-0.178,-0.2,-0.136,-0.154
-0.05,0.325,0.375,-0.138,-0.213,0.35,-0.084,-0.111,-0.18,-0.2,-0.134,-0.157
-0.051,0.324,0.375,-0.137,-0.213,0.35,-0.085,-0.134,-0.181,-0.2,-0.136,-0.16
-0.055,0.32,0.375,-0.133,-0.215,0.347,-0.085,-0.135,-0.185,-0.2,-0.14,-0.16
-0.055,0.32,0.375,-0.133,-0.215,0.347,-0.085,-0.135,-0.185,-0.2,-0.14,-0.16
-0.055,0.32,0.375,-0.133,-0.215,0.347,-0.085,-0.135,-0.185,-0.203,-0.139,-0.159
-0.056,0.32,0.375,-0.133,-0.215,0.347,-0.085,-0.135,-0.185,-0.206,-0.142,-0.162
-0.054,0.32,0.374,-0.133,-0.214,0.347,-0.085,-0.135,-0.185,-0.205,-0.145,-0.165
-0.05,0.32,0.37,-0.135,-0.21,0.345,-0.085,-0.135,-0.185,-0.205,-0.145,-0.165
-0.053,0.316,0.37,-0.131,-0.212,0.343,-0.085,-0.135,-0.185,-0.205,-0.145,-0.165
-0.059,0.311,0.371,-0.126,-0.215,0.341,-0.085,-0.135,-0.184,-0.208,-0.144,-0.165
-0.058,0.31,0.368,-0.126,-0.213,0.339,-0.085,-0.135,-0.187,-0.212,-0.147,-0.165
-0.055,0.309,0.365,-0.127,-0.21,0.336,-0.085,-0.135,-0.19,-0.215,-0.15,-0.166
-0.06,0.305,0.365,-0.123,-0.213,0.335,-0.085,-0.135,-0.19,-0.215,-0.15,-0.17
-0.06,0.305,0.365,-0.123,-0.214,0.335,-0.081,-0.135,-0.19,-0.215,-0.15,-0.17
-0.059,0.303,0.362,-0.122,-0.211,0.332,-0.08,-0.135,-0.19,-0.218,-0.15,-0.17
-0.062,0.297,0.359,-0.118,-0.211,0.328,-0.08,-0.135,-0.19,-0.221,-0.15,-0.17
-0.065,0.295,0.36,-0.115,-0.213,0.327,-0.08,-0.135,-0.19,-0.22,-0.15,-0.17
-0.065,0.295,0.36,-0.115,-0.213,0.327,-0.08,-0.135,-0.19,-0.22,-0.15,-0.17
-0.064,0.291,0.356,-0.114,-0.21,0.323,-0.08,-0.135,-0.19,-0.224,-0.15,-0.174
-0.067,0.287,0.354,-0.11,-0.211,0.32,-0.08,-0.135,-0.193,-0.225,-0.153,-0.175
-0.057,0.299,0.356,-0.121,-0.206,0.327,-0.08,-0.135,-0.196,-0.225,-0.156,-0.175
-0.044,0.31,0.354,-0.134,-0.199,0.332,-0.08,-0.135,-0.195,-0.225,-0.155,-0.175
-0.05,0.3,0.35,-0.125,-0.2,0.325,-0.08,-0.135,-0.195,-0.225,-0.155,-0.175
-0.054,0.296,0.35,-0.121,-0.202,0.322,-0.08,-0.135,-0.195,-0.221,-0.155,-0.175
-0.058,0.292,0.351,-0.117,-0.205,0.321,-0.08,-0.135,-0.194,-0.22,-0.155,-0.175
-0.06,0.288,0.348,-0.114,-0.204,0.318,-0.08,-0.135,-0.197,-0.22,-0.155,-0.175
-0.061,0.284,0.345,-0.112,-0.203,0.314,-0.081,-0.135,-0.2,-0.22,-0.155,-0.176
-0.065,0.28,0.345,-0.108,-0.205,0.312,-0.085,-0.135,-0.2,-0.22,-0.155,-0.18
-0.069,0.276,0.345,-0.104,-0.208,0.311,-0.085,-0.135,-0.2,-0.22,-0.159,-0.18
-0.07,0.272,0.342,-0.101,-0.207,0.307,-0.085,-0.135,-0.2,-0.22,-0.16,-0.18
-0.055,0.283,0.338,-0.114,-0.197,0.31,-0.085,-0.135,-0.2,-0.22,-0.16,-0.18
-0.038,0.296,0.334,-0.13,-0.186,0.315,-0.085,-0.135,-0.201,-0.22,-0.16,-0.18
-0.04,0.29,0.33,-0.125,-0.185,0.31,-0.085,-0.135,-0.205,-0.22,-0.16,-0.18
-0.042,0.286,0.328,-0.122,-0.185,0.307,-0.085,-0.135,-0.205,-0.22,-0.16,-0.18
-0.031,0.282,0.313,-0.126,-0.172,0.297,-0.085,-0.135,-0.205,-0.22,-0.16,-0.18
-0.054,0.28,0.334,-0.113,-0.194,0.306,-0.085,-0.135,-0.205,-0.22,-0.16,-0.18
-0.089,0.279,0.368,-0.096,-0.229,0.324,-0.085,-0.135,-0.205,-0.22,-0.16,-0.18
-0.08,0.275,0.355,-0.098,-0.218,0.315,-0.085,-0.135,-0.205,-0.22,-0.16,-0.18
-0.075,0.271,0.346,-0.098,-0.211,0.308,-0.085,-0.135,-0.205,-0.22,-0.16,-0.18
-0.072,0.27,0.342,-0.099,-0.207,0.306,-0.085,-0.135,-0.205,-0.22,-0.16,-0.18
-0.068,0.269,0.336,-0.1,-0.202,0.302,-0.085,-0.135,-0.205,-0.22,-0.16,-0.18
-0.064,0.264,0.328,-0.1,-0.196,0.295,-0.085,-0.135,-0.205,-0.22,-0.16,-0.18
-0.06,0.26,0.32,-0.1,-0.19,0.29,-0.085,-0.135,-0.205,-0.22,-0.16,-0.18
-0.055,0.26,0.315,-0.103,-0.185,0.287,-0.085,-0.135,-0.205,-0.22,-0.16,-0.18
-0.061,0.257,0.318,-0.098,-0.19,0.287,-0.085,-0.135,-0.204,-0.22,-0.16,-0.18
-0.066,0.254,0.321,-0.094,-0.194,0.287,-0.085,-0.135,-0.207,-0.22,-0.16,-0.18
-0.065,0.255,0.32,-0.095,-0.193,0.287,-0.085,-0.135,-0.21,-0.22,-0.16,-0.18
-0.065,0.255,0.32,-0.095,-0.193,0.287,-0.085,-0.135,-0.21,-0.22,-0.16,-0.18
-0.069,0.255,0.324,-0.093,-0.197,0.289,-0.085,-0.135,-0.21,-0.22,-0.16,-0.18
-0.071,0.255,0.326,-0.093,-0.199,0.29,-0.085,-0.135,-0.21,-0.219,-0.16,-0.18
-0.069,0.255,0.324,-0.093,-0.197,0.29,-0.085,-0.135,-0.21,-0.222,-0.16,-0.18
-0.071,0.255,0.326,-0.092,-0.199,0.29,-0.085,-0.135,-0.21,-0.225,-0.16,-0.18
-0.075,0.255,0.33,-0.09,-0.203,0.292,-0.085,-0.135,-0.21,-0.225,-0.16,-0.18
-0.075,0.255,0.33,-0.09,-0.203,0.292,-0.085,-0.135,-0.21,-0.225,-0.16,-0.18
-0.075,0.255,0.33,-0.09,-0.203,0.292,-0.088,-0.135,-0.21,-0.225,-0.16,-0.18
-0.075,0.255,0.33,-0.09,-0.203,0.292,-0.091,-0.135,-0.21,-0.225,-0.16,-0.18
-0.074,0.255,0.329,-0.09,-0.202,0.292,-0.09,-0.136,-0.21,-0.226,-0.16,-0.18
-0.07,0.255,0.325,-0.093,-0.198,0.29,-0.09,-0.14,-0.21,-0.23,-0.16,-0.18
-0.07,0.255,0.325,-0.093,-0.198,0.29,-0.09,-0.14,-0.21,-0.23,-0.16,-0.18
-0.071,0.255,0.326,-0.093,-0.199,0.29,-0.09,-0.143,-0.21,-0.23,-0.16,-0.18
-0.068,0.255,0.323,-0.094,-0.196,0.289,-0.09,-0.145,-0.21,-0.23,-0.16,-0.18
-0.065,0.255,0.32,-0.095,-0.193,0.287,-0.09,-0.146,-0.21,-0.23,-0.16,-0.18
-0.065,0.255,0.32,-0.095,-0.193,0.287,-0.09,-0.15,-0.21,-0.23,-0.16,-0.18
-0.065,0.255,0.32,-0.095,-0.193,0.287,-0.09,-0.15,-0.21,-0.226,-0.16,-0.184
-0.066,0.255,0.321,-0.095,-0.194,0.287,-0.09,-0.153,-0.21,-0.225,-0.161,-0.185
-0.063,0.255,0.318,-0.096,-0.191,0.286,-0.09,-0.156,-0.21,-0.225,-0.158,-0.185
-0.06,0.255,0.315,-0.098,-0.188,0.285,-0.09,-0.155,-0.21,-0.225,-0.155,-0.185
-0.06,0.255,0.315,-0.098,-0.188,0.285,-0.09,-0.155,-0.21,-0.225,-0.155,-0.185
-0.06,0.255,0.315,-0.098,-0.188,0.285,-0.09,-0.155,-0.21,-0.225,-0.155,-0.185
-0.061,0.255,0.315,-0.098,-0.189,0.285,-0.09,-0.155,-0.21,-0.225,-0.155,-0.185
-0.058,0.255,0.313,-0.099,-0.186,0.284,-0.09,-0.155,-0.21,-0.225,-0.155,-0.185
-0.055,0.254,0.31,-0.099,-0.183,0.281,-0.09,-0.155,-0.21,-0.225,-0.155,-0.185
-0.06,0.25,0.31,-0.095,-0.185,0.28,-0.09,-0.155,-0.21,-0.225,-0.155,-0.185
-0.061,0.25,0.31,-0.095,-0.186,0.28,-0.09,-0.155,-0.21,-0.225,-0.155,-0.185
-0.057,0.25,0.307,-0.097,-0.182,0.278,-0.09,-0.155,-0.21,-0.225,-0.152,-0.185
-0.054,0.25,0.305,-0.099,-0.179,0.277,-0.09,-0.155,-0.21,-0.225,-0.149,-0.185
-0.056,0.249,0.305,-0.097,-0.181,0.277,-0.09,-0.155,-0.21,-0.225,-0.15,-0.185
-0.06,0.245,0.305,-0.093,-0.183,0.275,-0.09,-0.155,-0.21,-0.225,-0.15,-0.185
-0.061,0.245,0.305,-0.093,-0.184,0.275,-0.09,-0.155,-0.21,-0.225,-0.15,-0.185
-0.057,0.245,0.302,-0.094,-0.18,0.273,-0.09,-0.155,-0.21,-0.225,-0.15,-0.185
-0.054,0.245,0.3,-0.096,-0.177,0.272,-0.09,-0.155,-0.21,-0.225,-0.15,-0.185
-0.056,0.244,0.3,-0.094,-0.178,0.272,-0.089,-0.155,-0.21,-0.225,-0.15,-0.185
-0.06,0.24,0.3,-0.09,-0.18,0.27,-0.085,-0.155,-0.21,-0.225,-0.15,-0.185
-0.061,0.24,0.301,-0.089,-0.181,0.27,-0.085,-0.155,-0.21,-0.225,-0.146,-0.185
-0.054,0.24,0.294,-0.093,-0.174,0.267,-0.086,-0.155,-0.21,-0.225,-0.145,-0.185
-0.064,0.24,0.304,-0.088,-0.184,0.272,-0.083,-0.155,-0.21,-0.225,-0.145,-0.185
-0.082,0.24,0.322,-0.079,-0.202,0.281,-0.08,-0.155,-0.209,-0.225,-0.145,-0.185
-0.075,0.24,0.315,-0.083,-0.195,0.277,-0.08,-0.155,-0.205,-0.225,-0.145,-0.185
-0.076,0.236,0.312,-0.081,-0.194,0.274,-0.08,-0.155,-0.205,-0.225,-0.145,-0.185
-0.101,0.235,0.335,-0.068,-0.218,0.285,-0.081,-0.155,-0.206,-0.226,-0.145,-0.186
-0.108,0.235,0.343,-0.064,-0.226,0.289,-0.078,-0.155,-0.203,-0.223,-0.145,-0.183
-0.092,0.235,0.327,-0.072,-0.21,0.28,-0.075,-0.154,-0.2,-0.22,-0.145,-0.18
-0.085,0.235,0.32,-0.075,-0.203,0.277,-0.075,-0.15,-0.2,-0.22,-0.145,-0.18
-0.081,0.231,0.312,-0.075,-0.197,0.271,-0.075,-0.15,-0.2,-0.22,-0.141,-0.18
-0.074,0.23,0.304,-0.078,-0.189,0.267,-0.075,-0.147,-0.197,-0.217,-0.14,-0.177
-0.066,0.23,0.296,-0.082,-0.181,0.263,-0.073,-0.145,-0.194,-0.214,-0.14,-0.174
-0.058,0.23,0.288,-0.086,-0.173,0.259,-0.07,-0.144,-0.195,-0.215,-0.14,-0.175
-0.05,0.23,0.28,-0.09,-0.165,0.255,-0.07,-0.14,-0.195,-0.215,-0.14,-0.175
-0.045,0.23,0.275,-0.093,-0.16,0.252,-0.07,-0.14,-0.191,-0.211,-0.136,-0.171
-0.048,0.227,0.275,-0.09,-0.162,0.251,-0.067,-0.137,-0.189,-0.209,-0.135,-0.169
-0.051,0.222,0.273,-0.086,-0.162,0.248,-0.065,-0.134,-0.191,-0.211,-0.135,-0.171
-0.05,0.22,0.27,-0.085,-0.16,0.245,-0.065,-0.135,-0.189,-0.209,-0.135,-0.169
-0.05,0.22,0.27,-0.085,-0.16,0.245,-0.065,-0.135,-0.185,-0.205,-0.135,-0.165
-0.049,0.216,0.266,-0.084,-0.158,0.241,-0.065,-0.131,-0.185,-0.205,-0.135,-0.165
-0.054,0.211,0.265,-0.079,-0.16,0.238,-0.062,-0.129,-0.186,-0.206,-0.132,-0.166
-0.053,0.21,0.263,-0.079,-0.158,0.236,-0.059,-0.131,-0.183,-0.203,-0.129,-0.163
-0.051,0.209,0.26,-0.079,-0.155,0.234,-0.06,-0.129,-0.18,-0.2,-0.13,-0.16
-0.06,0.2,0.26,-0.07,-0.16,0.23,-0.06,-0.125,-0.18,-0.2,-0.13,-0.16
-0.06,0.196,0.256,-0.068,-0.158,0.226,-0.06,-0.125,-0.18,-0.2,-0.13,-0.16
-0.063,0.193,0.256,-0.065,-0.159,0.224,-0.057,-0.126,-0.177,-0.197,-0.127,-0.157
-0.066,0.186,0.252,-0.061,-0.158,0.218,-0.054,-0.123,-0.174,-0.194,-0.124,-0.154
-0.065,0.179,0.244,-0.057,-0.155,0.211,-0.055,-0.12,-0.175,-0.195,-0.125,-0.155
-0.065,0.175,0.24,-0.055,-0.153,0.207,-0.055,-0.12,-0.175,-0.195,-0.125,-0.155
-0.061,0.171,0.232,-0.055,-0.146,0.201,-0.051,-0.12,-0.171,-0.191,-0.125,-0.151
-0.06,0.167,0.227,-0.054,-0.144,0.197,-0.05,-0.117,-0.17,-0.19,-0.126,-0.15
-0.059,0.163,0.221,-0.053,-0.14,0.192,-0.05,-0.114,-0.17,-0.19,-0.123,-0.15
-0.054,0.16,0.214,-0.053,-0.134,0.186,-0.05,-0.115,-0.17,-0.19,-0.12,-0.15
-0.05,0.16,0.21,-0.055,-0.13,0.185,-0.05,-0.115,-0.17,-0.19,-0.12,-0.15
-0.05,0.156,0.206,-0.053,-0.128,0.181,-0.046,-0.111,-0.166,-0.186,-0.12,-0.146
-0.05,0.155,0.205,-0.053,-0.128,0.18,-0.045,-0.109,-0.165,-0.185,-0.117,-0.145
-0.05,0.154,0.203,-0.052,-0.127,0.179,-0.045,-0.111,-0.165,-0.185,-0.115,-0.145
-0.051,0.149,0.199,-0.049,-0.125,0.174,-0.045,-0.109,-0.165,-0.185,-0.115,-0.145
-0.055,0.145,0.2,-0.045,-0.128,0.172,-0.045,-0.105,-0.165,-0.185,-0.115,-0.145
-0.055,0.145,0.201,-0.045,-0.128,0.172,-0.041,-0.105,-0.161,-0.181,-0.115,-0.141
-0.055,0.142,0.197,-0.044,-0.126,0.169,-0.039,-0.105,-0.159,-0.18,-0.112,-0.14
-0.055,0.14,0.195,-0.043,-0.125,0.167,-0.041,-0.105,-0.161,-0.18,-0.109,-0.14
-0.056,0.139,0.194,-0.042,-0.125,0.166,-0.039,-0.105,-0.159,-0.18,-0.11,-0.14
-0.06,0.13,0.19,-0.035,-0.125,0.16,-0.035,-0.105,-0.155,-0.18,-0.11,-0.14
-0.063,0.126,0.19,-0.031,-0.127,0.157,-0.035,-0.101,-0.155,-0.176,-0.11,-0.14
-0.072,0.119,0.191,-0.023,-0.132,0.154,-0.035,-0.1,-0.155,-0.175,-0.107,-0.137
-0.074,0.113,0.187,-0.019,-0.13,0.149,-0.035,-0.1,-0.155,-0.175,-0.104,-0.134
-0.07,0.109,0.178,-0.02,-0.124,0.144,-0.034,-0.1,-0.154,-0.175,-0.105,-0.135
-0.075,0.1,0.175,-0.013,-0.125,0.137,-0.03,-0.1,-0.15,-0.175,-0.105,-0.135
-0.078,0.093,0.171,-0.007,-0.125,0.132,-0.03,-0.1,-0.15,-0.175,-0.101,-0.135
-0.053,0.111,0.164,-0.029,-0.109,0.137,-0.031,-0.101,-0.15,-0.172,-0.1,-0.132
-0.038,0.119,0.157,-0.041,-0.098,0.138,-0.029,-0.098,-0.15,-0.169,-0.1,-0.129
-0.046,0.108,0.154,-0.031,-0.1,0.13,-0.033,-0.095,-0.149,-0.17,-0.1,-0.13
-0.045,0.105,0.15,-0.03,-0.098,0.127,-0.045,-0.095,-0.145,-0.17,-0.1,-0.13
-0.044,0.101,0.146,-0.029,-0.095,0.123,-0.041,-0.095,-0.145,-0.17,-0.096,-0.13
-0.048,0.097,0.145,-0.025,-0.097,0.121,-0.039,-0.095,-0.146,-0.167,-0.095,-0.13
-0.05,0.093,0.143,-0.022,-0.097,0.118,-0.041,-0.095,-0.143,-0.164,-0.095,-0.129
-0.05,0.089,0.139,-0.019,-0.095,0.114,-0.039,-0.094,-0.14,-0.165,-0.095,-0.124
-0.055,0.085,0.14,-0.015,-0.098,0.112,-0.035,-0.09,-0.14,-0.165,-0.095,-0.12
-0.064,0.077,0.141,-0.007,-0.103,0.108,-0.035,-0.09,-0.14,-0.165,-0.091,-0.12
-0.065,0.072,0.137,-0.003,-0.101,0.104,-0.036,-0.09,-0.141,-0.165,-0.09,-0.117
-0.067,0.068,0.135,-0.001,-0.101,0.101,-0.033,-0.09,-0.138,-0.163,-0.09,-0.115
-0.07,0.064,0.134,0.003,-0.103,0.099,-0.03,-0.09,-0.135,-0.159,-0.09,-0.115
-0.07,0.06,0.13,0.005,-0.1,0.095,-0.03,-0.09,-0.135,-0.155,-0.09,-0.11
-0.073,0.056,0.129,0.009,-0.102,0.092,-0.03,-0.09,-0.135,-0.151,-0.09,-0.105
-0.08,0.054,0.134,0.013,-0.107,0.094,-0.031,-0.087,-0.135,-0.147,-0.091,-0.105
-0.076,0.04,0.116,0.018,-0.096,0.078,-0.028,-0.084,-0.133,-0.143,-0.087,-0.103
-0.061,0.014,0.075,0.023,-0.068,0.044,-0.025,-0.085,-0.13,-0.14,-0.078,-0.1
-0.05,-0.005,0.045,0.027,-0.047,0.02,-0.025,-0.085,-0.13,-0.14,-0.07,-0.1
-0.061,-0.021,0.04,0.041,-0.05,0.009,-0.025,-0.081,-0.13,-0.136,-0.066,-0.096
-0.074,-0.034,0.04,0.054,-0.057,0.003,-0.026,-0.08,-0.127,-0.135,-0.059,-0.095
-0.088,-0.047,0.04,0.068,-0.064,-0.003,-0.023,-0.08,-0.125,-0.135,-0.051,-0.095
-0.103,-0.064,0.039,0.084,-0.071,-0.013,-0.02,-0.08,-0.125,-0.135,-0.043,-0.095
-0.11,-0.075,0.035,0.092,-0.072,-0.02,-0.02,-0.08,-0.125,-0.135,-0.04,-0.095
-0.103,-0.068,0.035,0.085,-0.068,-0.016,-0.02,-0.076,-0.125,-0.135,-0.044,-0.095
-0.094,-0.059,0.035,0.076,-0.064,-0.012,-0.021,-0.075,-0.122,-0.135,-0.045,-0.095
-0.086,-0.051,0.035,0.068,-0.06,-0.008,-0.018,-0.075,-0.119,-0.135,-0.047,-0.095
-0.077,-0.043,0.034,0.06,-0.055,-0.004,-0.015,-0.075,-0.12,-0.134,-0.05,-0.094
-0.065,-0.035,0.03,0.05,-0.047,-0.002,-0.015,-0.075,-0.12,-0.13,-0.05,-0.09
-0.056,-0.027,0.03,0.041,-0.042,0.001,-0.015,-0.071,-0.12,-0.13,-0.054,-0.09
-0.052,-0.022,0.031,0.037,-0.041,0.004,-0.015,-0.069,-0.117,-0.13,-0.055,-0.09
-0.046,-0.018,0.028,0.032,-0.037,0.005,-0.015,-0.071,-0.114,-0.13,-0.057,-0.09
-0.039,-0.015,0.025,0.026,-0.031,0.005,-0.014,-0.069,-0.115,-0.13,-0.06,-0.09
-0.04,-0.015,0.025,0.027,-0.032,0.005,-0.01,-0.065,-0.115,-0.13,-0.06,-0.09
-0.04,-0.015,0.025,0.027,-0.032,0.005,-0.01,-0.065,-0.115,-0.13,-0.06,-0.09
-0.04,-0.015,0.025,0.027,-0.032,0.005,-0.01,-0.065,-0.115,-0.131,-0.06,-0.091
-0.038,-0.015,0.023,0.026,-0.03,0.004,-0.01,-0.065,-0.115,-0.128,-0.06,-0.088
-0.034,-0.015,0.019,0.025,-0.026,0.002,-0.009,-0.064,-0.115,-0.125,-0.061,-0.085
-0.035,-0.015,0.02,0.025,-0.027,0.002,-0.005,-0.06,-0.115,-0.125,-0.06,-0.085
-0.036,-0.015,0.021,0.025,-0.028,0.002,-0.005,-0.06,-0.111,-0.125,-0.054,-0.085
-0.032,-0.015,0.017,0.023,-0.024,0.0,-0.005,-0.06,-0.11,-0.125,-0.071,-0.085
-0.047,-0.015,0.032,0.031,-0.039,0.008,-0.005,-0.06,-0.11,-0.125,-0.081,-0.085
-0.067,-0.015,0.052,0.041,-0.059,0.018,-0.005,-0.059,-0.11,-0.125,-0.074,-0.085
-0.06,-0.015,0.045,0.037,-0.052,0.015,-0.005,-0.055,-0.11,-0.125,-0.075,-0.085
-0.06,-0.015,0.045,0.037,-0.052,0.015,-0.009,-0.055,-0.11,-0.125,-0.076,-0.085
-0.057,-0.015,0.042,0.036,-0.049,0.013,-0.014,-0.055,-0.11,-0.126,-0.072,-0.086
-0.054,-0.015,0.039,0.035,-0.046,0.012,-0.015,-0.055,-0.11,-0.123,-0.07,-0.083
-0.055,-0.015,0.04,0.035,-0.047,0.012,-0.016,-0.055,-0.109,-0.12,-0.07,-0.08
-0.055,-0.015,0.04,0.035,-0.047,0.012,-0.02,-0.055,-0.105,-0.12,-0.07,-0.08
-0.051,-0.015,0.036,0.032,-0.043,0.01,-0.024,-0.055,-0.105,-0.12,-0.07,-0.08
-0.049,-0.015,0.034,0.032,-0.041,0.01,-0.026,-0.056,-0.105,-0.12,-0.067,-0.08
-0.051,-0.015,0.036,0.032,-0.043,0.01,-0.023,-0.053,-0.105,-0.12,-0.064,-0.08
-0.049,-0.015,0.034,0.032,-0.041,0.01,-0.02,-0.05,-0.105,-0.12,-0.065,-0.08
-0.045,-0.015,0.03,0.03,-0.037,0.007,-0.02,-0.05,-0.105,-0.12,-0.065,-0.08
-0.045,-0.015,0.03,0.03,-0.037,0.007,-0.02,-0.05,-0.105,-0.12,-0.065,-0.08
-0.046,-0.015,0.031,0.03,-0.038,0.007,-0.02,-0.05,-0.105,-0.12,-0.062,-0.08
-0.043,-0.015,0.028,0.029,-0.035,0.006,-0.02,-0.05,-0.105,-0.12,-0.059,-0.08
-0.04,-0.015,0.025,0.027,-0.032,0.005,-0.02,-0.05,-0.104,-0.12,-0.06,-0.08
-0.04,-0.015,0.025,0.027,-0.032,0.005,-0.02,-0.05,-0.1,-0.12,-0.06,-0.08
-0.04,-0.019,0.021,0.03,-0.03,0.001,-0.02,-0.05,-0.1,-0.12,-0.056,-0.08
-0.039,-0.02,0.019,0.03,-0.029,0.0,-0.017,-0.047,-0.1,-0.12,-0.055,-0.08
-0.042,-0.022,0.021,0.032,-0.031,0.0,-0.014,-0.044,-0.1,-0.12,-0.055,-0.08
-0.044,-0.025,0.019,0.035,-0.031,-0.003,-0.015,-0.045,-0.1,-0.12,-0.055,-0.08
-0.04,-0.025,0.015,0.032,-0.027,-0.005,-0.015,-0.045,-0.1,-0.12,-0.055,-0.08
-0.044,-0.029,0.015,0.036,-0.029,-0.007,-0.015,-0.045,-0.096,-0.12,-0.051,-0.08
-0.046,-0.031,0.016,0.038,-0.031,-0.007,-0.015,-0.045,-0.095,-0.12,-0.05,-0.08
-0.043,-0.03,0.013,0.036,-0.028,-0.008,-0.015,-0.045,-0.095,-0.12,-0.05,-0.08
-0.048,-0.039,0.009,0.044,-0.028,-0.014,-0.015,-0.045,-0.095,-0.12,-0.05,-0.08
-0.065,-0.055,0.01,0.06,-0.037,-0.022,-0.015,-0.045,-0.095,-0.12,-0.05,-0.08
-0.064,-0.051,0.013,0.058,-0.038,-0.019,-0.011,-0.045,-0.095,-0.12,-0.046,-0.08
-0.041,-0.05,-0.009,0.045,-0.016,-0.029,-0.01,-0.045,-0.096,-0.12,-0.044,-0.08
-0.027,-0.048,-0.021,0.038,-0.003,-0.035,-0.01,-0.045,-0.093,-0.12,-0.046,-0.08
-0.031,-0.045,-0.014,0.038,-0.008,-0.029,-0.01,-0.045,-0.09,-0.12,-0.044,-0.08
-0.03,-0.045,-0.015,0.038,-0.007,-0.03,-0.01,-0.045,-0.09,-0.12,-0.04,-0.08
-0.03,-0.041,-0.011,0.036,-0.01,-0.026,-0.01,-0.045,-0.09,-0.116,-0.04,-0.076
-0.029,-0.039,-0.01,0.034,-0.01,-0.025,-0.01,-0.045,-0.09,-0.115,-0.04,-0.075
-0.033,-0.041,-0.008,0.037,-0.012,-0.025,-0.01,-0.045,-0.09,-0.115,-0.04,-0.075
-0.043,-0.047,-0.004,0.046,-0.019,-0.026,-0.01,-0.045,-0.089,-0.115,-0.039,-0.075
-0.05,-0.055,-0.005,0.053,-0.022,-0.03,-0.01,-0.045,-0.085,-0.115,-0.035,-0.075
-0.045,-0.058,-0.013,0.052,-0.016,-0.035,-0.006,-0.045,-0.085,-0.115,-0.035,-0.075
-0.054,-0.072,-0.018,0.063,-0.018,-0.045,-0.005,-0.045,-0.085,-0.115,-0.035,-0.075
-0.06,-0.083,-0.022,0.072,-0.019,-0.052,-0.005,-0.045,-0.085,-0.115,-0.035,-0.075
-0.053,-0.079,-0.025,0.066,-0.014,-0.052,-0.005,-0.045,-0.085,-0.115,-0.034,-0.074
-0.05,-0.08,-0.03,0.065,-0.01,-0.055,-0.005,-0.045,-0.085,-0.115,-0.03,-0.07
-0.05,-0.097,-0.047,0.073,-0.001,-0.072,-0.005,-0.045,-0.085,-0.115,-0.03,-0.07
-0.05,-0.099,-0.049,0.075,0.0,-0.074,-0.005,-0.045,-0.088,-0.115,-0.031,-0.07
-0.05,-0.094,-0.044,0.072,-0.002,-0.069,-0.005,-0.045,-0.091,-0.115,-0.028,-0.07
-0.05,-0.095,-0.045,0.073,-0.002,-0.07,-0.005,-0.045,-0.09,-0.115,-0.025,-0.07
-0.05,-0.095,-0.045,0.073,-0.002,-0.07,-0.005,-0.045,-0.09,-0.115,-0.025,-0.07
-0.05,-0.095,-0.045,0.073,-0.002,-0.07,-0.005,-0.045,-0.09,-0.115,-0.025,-0.07
-0.05,-0.095,-0.045,0.073,-0.002,-0.07,-0.005,-0.045,-0.09,-0.115,-0.026,-0.071
-0.05,-0.095,-0.045,0.073,-0.002,-0.07,-0.005,-0.045,-0.09,-0.115,-0.023,-0.068
-0.05,-0.095,-0.045,0.073,-0.002,-0.07,-0.004,-0.045,-0.09,-0.115,-0.02,-0.065
-0.05,-0.095,-0.045,0.073,-0.002,-0.07,0.0,-0.045,-0.09,-0.115,-0.02,-0.065
-0.05,-0.091,-0.041,0.07,-0.005,-0.066,0.0,-0.045,-0.09,-0.115,-0.02,-0.065
-0.05,-0.09,-0.04,0.07,-0.005,-0.065,0.0,-0.045,-0.09,-0.115,-0.02,-0.065
-0.05,-0.09,-0.04,0.07,-0.005,-0.065,0.0,-0.045,-0.09,-0.115,-0.022,-0.065
-0.05,-0.09,-0.04,0.07,-0.005,-0.065,0.0,-0.045,-0.09,-0.115,-0.026,-0.065
-0.05,-0.09,-0.04,0.07,-0.005,-0.065,0.0,-0.045,-0.09,-0.115,-0.03,-0.065
-0.05,-0.09,-0.04,0.07,-0.005,-0.065,0.0,-0.045,-0.09,-0.115,-0.034,-0.065
-0.05,-0.09,-0.04,0.07,-0.005,-0.065,0.0,-0.045,-0.09,-0.114,-0.035,-0.064
-0.05,-0.09,-0.04,0.07,-0.005,-0.065,0.0,-0.045,-0.09,-0.117,-0.037,-0.067
-0.05,-0.089,-0.039,0.07,-0.005,-0.064,0.0,-0.045,-0.09,-0.12,-0.04,-0.07
-0.05,-0.085,-0.035,0.068,-0.007,-0.06,0.0,-0.045,-0.09,-0.12,-0.04,-0.07
-0.05,-0.085,-0.035,0.068,-0.007,-0.06,0.0,-0.045,-0.09,-0.12,-0.044,-0.074
-0.05,-0.085,-0.035,0.068,-0.007,-0.06,-0.001,-0.045,-0.09,-0.12,-0.046,-0.075
-0.05,-0.085,-0.035,0.068,-0.007,-0.06,0.002,-0.045,-0.09,-0.12,-0.043,-0.077
-0.05,-0.085,-0.035,0.068,-0.007,-0.06,0.005,-0.045,-0.09,-0.12,-0.04,-0.08
-0.05,-0.085,-0.035,0.068,-0.007,-0.06,0.005,-0.045,-0.09,-0.12,-0.04,-0.08
-0.05,-0.085,-0.035,0.068,-0.007,-0.06,0.005,-0.045,-0.09,-0.12,-0.04,-0.08
-0.05,-0.085,-0.035,0.068,-0.007,-0.06,0.005,-0.045,-0.09,-0.12,-0.04,-0.08
-0.049,-0.085,-0.036,0.067,-0.006,-0.06,0.005,-0.045,-0.09,-0.12,-0.04,-0.08
-0.052,-0.086,-0.034,0.069,-0.008,-0.06,0.005,-0.045,-0.091,-0.12,-0.04,-0.08
-0.055,-0.09,-0.035,0.073,-0.01,-0.062,0.005,-0.045,-0.095,-0.12,-0.04,-0.08
-0.041,-0.094,-0.053,0.068,0.007,-0.074,0.005,-0.045,-0.099,-0.12,-0.04,-0.08
-0.048,-0.095,-0.047,0.072,0.0,-0.071,0.005,-0.045,-0.103,-0.12,-0.04,-0.08
-0.039,-0.095,-0.056,0.067,0.009,-0.075,0.005,-0.045,-0.106,-0.12,-0.04,-0.08
-0.011,-0.095,-0.084,0.053,0.037,-0.089,0.005,-0.045,-0.104,-0.12,-0.04,-0.08
-0.01,-0.095,-0.085,0.053,0.038,-0.09,0.005,-0.045,-0.1,-0.12,-0.04,-0.08
-0.01,-0.095,-0.085,0.053,0.038,-0.09,0.005,-0.045,-0.1,-0.12,-0.04,-0.08
-0.01,-0.095,-0.085,0.053,0.038,-0.09,0.008,-0.045,-0.1,-0.12,-0.037,-0.08
-0.01,-0.095,-0.085,0.053,0.038,-0.09,0.011,-0.045,-0.1,-0.12,-0.034,-0.08
-0.01,-0.095,-0.085,0.053,0.038,-0.09,0.01,-0.045,-0.1,-0.12,-0.035,-0.08
-0.01,-0.095,-0.085,0.053,0.038,-0.09,0.01,-0.045,-0.1,-0.12,-0.035,-0.08
-0.006,-0.095,-0.089,0.051,0.042,-0.092,0.01,-0.044,-0.096,-0.12,-0.035,-0.08
-0.004,-0.095,-0.09,0.05,0.043,-0.092,0.01,-0.052,-0.095,-0.12,-0.035,-0.08
-0.005,-0.095,-0.09,0.05,0.043,-0.092,0.01,-0.054,-0.095,-0.12,-0.035,-0.08
-0.004,-0.095,-0.09,0.05,0.043,-0.092,0.01,-0.049,-0.095,-0.12,-0.035,-0.08
-0.01,-0.1,-0.09,0.055,0.04,-0.095,0.01,-0.05,-0.095,-0.12,-0.035,-0.08
-0.033,-0.121,-0.088,0.077,0.028,-0.104,0.01,-0.05,-0.095,-0.116,-0.035,-0.08
-0.022,-0.13,-0.108,0.076,0.043,-0.119,0.01,-0.05,-0.096,-0.115,-0.035,-0.08
-0.006,-0.131,-0.125,0.069,0.06,-0.128,0.01,-0.05,-0.093,-0.115,-0.035,-0.08
-0.012,-0.136,-0.125,0.074,0.057,-0.13,0.01,-0.049,-0.09,-0.115,-0.035,-0.08
-0.015,-0.14,-0.125,0.078,0.055,-0.132,0.01,-0.045,-0.09,-0.115,-0.035,-0.08
-0.015,-0.14,-0.125,0.078,0.055,-0.132,0.006,-0.045,-0.09,-0.115,-0.039,-0.08
-0.015,-0.14,-0.125,0.078,0.055,-0.132,0.005,-0.045,-0.09,-0.115,-0.04,-0.081
-0.015,-0.14,-0.125,0.078,0.055,-0.132,0.005,-0.045,-0.09,-0.115,-0.04,-0.078
-0.015,-0.14,-0.125,0.078,0.055,-0.132,0.005,-0.045,-0.089,-0.115,-0.04,-0.075
-0.015,-0.14,-0.125,0.078,0.055,-0.132,0.005,-0.045,-0.085,-0.115,-0.04,-0.075
-0.015,-0.14,-0.125,0.078,0.055,-0.132,0.005,-0.045,-0.085,-0.115,-0.04,-0.075
-0.015,-0.14,-0.125,0.078,0.055,-0.132,0.005,-0.042,-0.085,-0.115,-0.04,-0.075
-0.015,-0.14,-0.125,0.078,0.055,-0.132,0.005,-0.039,-0.085,-0.115,-0.04,-0.075
-0.015,-0.14,-0.125,0.078,0.055,-0.132,0.005,-0.04,-0.085,-0.114,-0.04,-0.075
-0.015,-0.14,-0.125,0.078,0.055,-0.132,0.005,-0.04,-0.085,-0.11,-0.04,-0.075
-0.015,-0.14,-0.125,0.078,0.055,-0.132,0.005,-0.04,-0.085,-0.11,-0.04,-0.075
-0.014,-0.139,-0.125,0.077,0.055,-0.132,0.005,-0.041,-0.082,-0.11,-0.043,-0.075
-0.017,-0.142,-0.125,0.08,0.054,-0.133,0.005,-0.038,-0.079,-0.11,-0.046,-0.075
-0.02,-0.145,-0.126,0.083,0.054,-0.136,0.005,-0.035,-0.08,-0.11,-0.045,-0.075
-0.02,-0.145,-0.125,0.083,0.053,-0.135,0.005,-0.035,-0.08,-0.11,-0.045,-0.075
-0.031,-0.145,-0.114,0.088,0.042,-0.129,0.005,-0.035,-0.076,-0.11,-0.045,-0.075
-0.012,-0.145,-0.133,0.079,0.061,-0.139,0.005,-0.035,-0.074,-0.11,-0.045,-0.072
0.002,-0.145,-0.147,0.072,0.075,-0.146,0.005,-0.035,-0.076,-0.11,-0.045,-0.069
-0.006,-0.145,-0.139,0.076,0.067,-0.141,0.005,-0.035,-0.074,-0.11,-0.045,-0.07
-0.005,-0.145,-0.14,0.075,0.068,-0.142,0.005,-0.035,-0.07,-0.11,-0.045,-0.07
-0.005,-0.145,-0.14,0.075,0.068,-0.142,0.005,-0.031,-0.07,-0.11,-0.045,-0.07
-0.005,-0.145,-0.14,0.075,0.068,-0.142,0.005,-0.03,-0.071,-0.11,-0.046,-0.07
-0.005,-0.145,-0.14,0.075,0.068,-0.142,0.005,-0.028,-0.068,-0.109,-0.043,-0.07
-0.005,-0.145,-0.14,0.075,0.068,-0.142,0.005,-0.025,-0.065,-0.104,-0.04,-0.07
-0.005,-0.145,-0.14,0.075,0.068,-0.142,0.005,-0.025,-0.065,-0.1,-0.04,-0.07
-0.005,-0.146,-0.14,0.076,0.068,-0.143,0.005,-0.021,-0.065,-0.1,-0.036,-0.07
-0.002,-0.139,-0.137,0.071,0.068,-0.138,0.004,-0.02,-0.062,-0.098,-0.035,-0.07
0.002,-0.133,-0.134,0.066,0.068,-0.134,0.008,-0.018,-0.059,-0.092,-0.033,-0.07
0.007,-0.128,-0.135,0.061,0.071,-0.131,0.017,-0.015,-0.06,-0.09,-0.03,-0.07
0.015,-0.12,-0.135,0.053,0.075,-0.127,0.02,-0.015,-0.06,-0.09,-0.03,-0.07
0.019,-0.116,-0.135,0.049,0.077,-0.126,0.024,-0.011,-0.056,-0.086,-0.026,-0.066
0.026,-0.109,-0.135,0.042,0.081,-0.122,0.028,-0.01,-0.054,-0.082,-0.025,-0.065
0.032,-0.103,-0.135,0.036,0.084,-0.118,0.032,-0.008,-0.055,-0.078,-0.023,-0.063
0.036,-0.099,-0.135,0.032,0.086,-0.117,0.036,-0.005,-0.054,-0.074,-0.02,-0.06
0.04,-0.095,-0.135,0.028,0.088,-0.115,0.04,-0.005,-0.05,-0.07,-0.02,-0.06
0.036,-0.095,-0.131,0.03,0.084,-0.113,0.044,-0.001,-0.046,-0.066,-0.016,-0.056
0.038,-0.092,-0.13,0.027,0.084,-0.11,0.048,0.0,-0.041,-0.062,-0.015,-0.055
0.04,-0.09,-0.13,0.025,0.085,-0.11,0.052,0.001,-0.04,-0.058,-0.013,-0.053
0.041,-0.089,-0.13,0.024,0.085,-0.11,0.056,0.006,-0.039,-0.055,-0.01,-0.05
0.045,-0.085,-0.13,0.02,0.088,-0.107,0.055,0.01,-0.035,-0.055,-0.01,-0.05
0.045,-0.085,-0.13,0.02,0.088,-0.107,0.053,0.014,-0.031,-0.055,-0.006,-0.046
0.048,-0.082,-0.13,0.017,0.089,-0.106,0.072,0.018,-0.03,-0.052,-0.001,-0.046
0.05,-0.08,-0.13,0.015,0.09,-0.105,0.078,0.022,-0.029,-0.049,0.0,-0.042
0.051,-0.079,-0.131,0.014,0.091,-0.105,0.061,0.026,-0.024,-0.05,0.0,-0.034
0.055,-0.075,-0.13,0.01,0.093,-0.102,0.05,0.025,-0.02,-0.05,0.005,-0.03
0.047,-0.076,-0.122,0.015,0.085,-0.099,0.038,0.021,-0.02,-0.046,0.01,-0.022
0.079,-0.069,-0.149,-0.004,0.115,-0.109,0.029,0.02,-0.017,-0.044,0.009,-0.017
0.109,-0.062,-0.171,-0.023,0.141,-0.117,0.018,0.018,-0.014,-0.046,0.015,-0.011
0.11,-0.059,-0.17,-0.025,0.14,-0.114,0.001,0.015,-0.015,-0.044,0.028,-0.004
0.115,-0.055,-0.17,-0.03,0.143,-0.112,-0.015,0.015,-0.015,-0.04,0.04,0.0
0.123,-0.047,-0.17,-0.038,0.147,-0.108,-0.034,0.011,-0.011,-0.04,0.051,0.004
0.131,-0.042,-0.173,-0.044,0.152,-0.107,-0.058,0.01,-0.009,-0.04,0.066,0.008
0.14,-0.037,-0.176,-0.051,0.158,-0.106,-0.065,0.008,-0.011,-0.04,0.068,0.012
0.137,-0.037,-0.174,-0.049,0.156,-0.105,-0.059,0.005,-0.009,-0.039,0.058,0.016
0.12,-0.055,-0.175,-0.032,0.148,-0.115,-0.055,0.005,-0.005,-0.035,0.055,0.015
0.124,-0.073,-0.196,-0.025,0.16,-0.134,-0.051,0.001,-0.005,-0.035,0.047,0.007
0.123,-0.077,-0.2,-0.022,0.161,-0.138,-0.05,0.0,-0.005,-0.036,0.042,0.002
0.104,-0.088,-0.192,-0.007,0.148,-0.14,-0.049,-0.002,-0.004,-0.033,0.036,-0.002
0.089,-0.101,-0.19,0.006,0.14,-0.145,-0.044,-0.005,-0.006,-0.03,0.029,-0.006
0.095,-0.095,-0.19,0.0,0.143,-0.142,-0.04,-0.005,-0.015,-0.03,0.025,-0.01
0.091,-0.095,-0.186,0.002,0.139,-0.14,-0.04,-0.009,-0.024,-0.03,0.021,-0.014
0.09,-0.092,-0.182,0.001,0.136,-0.137,-0.038,-0.01,-0.028,-0.029,0.017,-0.018
0.089,-0.089,-0.178,0.0,0.134,-0.134,-0.032,-0.011,-0.033,-0.033,0.013,-0.022
0.092,-0.09,-0.183,-0.001,0.137,-0.137,-0.03,-0.016,-0.042,-0.042,0.009,-0.025
0.1,-0.105,-0.205,0.003,0.153,-0.155,-0.03,-0.02,-0.05,-0.045,0.005,-0.025
0.093,-0.148,-0.242,0.027,0.168,-0.194,-0.018,-0.024,-0.055,-0.049,0.005,-0.029
0.113,-0.155,-0.268,0.022,0.191,-0.211,-0.008,-0.029,-0.052,-0.053,0.002,-0.03
0.112,-0.167,-0.278,0.028,0.195,-0.223,-0.001,-0.029,-0.049,-0.057,-0.002,-0.032
0.086,-0.194,-0.28,0.054,0.183,-0.237,0.007,-0.024,-0.05,-0.06,-0.006,-0.035
0.085,-0.195,-0.28,0.055,0.183,-0.237,0.015,-0.025,-0.05,-0.06,-0.01,-0.035
0.085,-0.195,-0.28,0.055,0.183,-0.237,0.023,-0.025,-0.05,-0.06,-0.014,-0.039
0.085,-0.195,-0.28,0.055,0.183,-0.237,0.031,-0.022,-0.05,-0.06,-0.015,-0.043
0.086,-0.194,-0.28,0.054,0.183,-0.237,0.038,-0.019,-0.05,-0.06,-0.016,-0.049
0.084,-0.196,-0.28,0.056,0.182,-0.238,0.04,-0.02,-0.05,-0.06,-0.021,-0.057
0.075,-0.205,-0.28,0.065,0.178,-0.242,0.04,-0.02,-0.05,-0.06,-0.025,-0.06
0.067,-0.212,-0.28,0.072,0.174,-0.245,0.04,-0.016,-0.05,-0.068,-0.029,-0.056
0.056,-0.228,-0.283,0.086,0.17,-0.255,0.04,-0.014,-0.05,-0.071,-0.033,-0.055
0.047,-0.238,-0.286,0.096,0.167,-0.262,0.04,-0.016,-0.05,-0.068,-0.037,-0.055
0.044,-0.241,-0.285,0.099,0.165,-0.262,0.04,-0.014,-0.05,-0.074,-0.04,-0.055
0.04,-0.245,-0.285,0.103,0.163,-0.265,0.04,-0.01,-0.05,-0.09,-0.04,-0.055
0.036,-0.249,-0.285,0.107,0.161,-0.266,0.04,-0.01,-0.05,-0.087,-0.044,-0.055
0.03,-0.255,-0.285,0.113,0.158,-0.27,0.04,-0.011,-0.05,-0.084,-0.045,-0.055
0.036,-0.249,-0.285,0.107,0.161,-0.267,0.04,-0.008,-0.05,-0.086,-0.045,-0.055
0.037,-0.249,-0.285,0.107,0.161,-0.267,0.04,-0.005,-0.05,-0.084,-0.045,-0.054
0.01,-0.275,-0.285,0.133,0.148,-0.28,0.04,-0.005,-0.05,-0.08,-0.045,-0.05
0.002,-0.281,-0.283,0.14,0.142,-0.281,0.04,-0.005,-0.05,-0.08,-0.045,-0.05
0.023,-0.28,-0.303,0.129,0.163,-0.291,0.04,-0.002,-0.05,-0.08,-0.045,-0.05
0.04,-0.28,-0.32,0.12,0.18,-0.3,0.04,0.001,-0.05,-0.08,-0.045,-0.05
0.04,-0.28,-0.32,0.12,0.18,-0.3,0.04,0.0,-0.05,-0.079,-0.046,-0.05
0.04,-0.28,-0.32,0.12,0.18,-0.3,0.04,0.0,-0.05,-0.075,-0.05,-0.05
0.038,-0.287,-0.324,0.125,0.181,-0.305,0.044,0.004,-0.05,-0.075,-0.05,-0.05
0.022,-0.303,-0.325,0.141,0.173,-0.313,0.048,0.005,-0.05,-0.075,-0.05,-0.051
0.013,-0.314,-0.327,0.15,0.17,-0.32,0.052,0.005,-0.05,-0.075,-0.05,-0.048
0.015,-0.316,-0.331,0.15,0.173,-0.323,0.056,0.005,-0.049,-0.074,-0.05,-0.045
0.01,-0.32,-0.33,0.155,0.17,-0.325,0.06,0.005,-0.045,-0.07,-0.05,-0.045
0.007,-0.325,-0.332,0.159,0.17,-0.329,0.064,0.001,-0.045,-0.07,-0.05,-0.045
0.028,-0.322,-0.35,0.147,0.19,-0.336,0.069,0.0,-0.042,-0.071,-0.049,-0.045
0.029,-0.336,-0.364,0.154,0.197,-0.35,0.07,0.0,-0.04,-0.068,-0.052,-0.045
0.006,-0.358,-0.365,0.177,0.186,-0.362,0.071,0.0,-0.039,-0.065,-0.055,-0.045
0.005,-0.36,-0.365,0.178,0.185,-0.362,0.075,0.0,-0.035,-0.065,-0.055,-0.045
0.005,-0.36,-0.365,0.178,0.185,-0.362,0.075,0.0,-0.036,-0.065,-0.055,-0.045
0.005,-0.36,-0.365,0.178,0.185,-0.362,0.075,-0.001,-0.026,-0.066,-0.055,-0.044
0.005,-0.36,-0.365,0.178,0.185,-0.362,0.076,0.005,-0.016,-0.063,-0.055,-0.047
0.005,-0.36,-0.365,0.178,0.185,-0.362,0.074,0.01,-0.007,-0.06,-0.055,-0.051
0.005,-0.36,-0.365,0.178,0.185,-0.362,0.075,0.015,0.005,-0.06,-0.055,-0.05
0.005,-0.36,-0.365,0.178,0.185,-0.362,0.099,0.062,0.009,-0.06,-0.056,-0.052
0.005,-0.36,-0.365,0.178,0.185,-0.362,0.118,0.107,0.054,-0.062,-0.052,-0.074
0.005,-0.36,-0.366,0.178,0.185,-0.362,0.15,0.177,0.112,-0.051,-0.064,-0.104
0.004,-0.36,-0.364,0.178,0.184,-0.361,0.196,0.272,0.174,-0.031,-0.074,-0.115
0.005,-0.36,-0.365,0.178,0.185,-0.362,0.23,0.355,0.265,-0.01,-0.06,-0.105
0.021,-0.362,-0.383,0.171,0.202,-0.372,0.262,0.468,0.369,0.04,-0.053,-0.101
0.033,-0.343,-0.375,0.156,0.204,-0.359,0.294,0.591,0.495,0.095,-0.032,-0.096
0.037,-0.321,-0.358,0.142,0.198,-0.339,0.293,0.605,0.518,0.128,-0.014,-0.097
0.059,-0.288,-0.346,0.114,0.202,-0.317,0.272,0.491,0.407,0.162,0.019,-0.08
0.105,-0.225,-0.33,0.06,0.218,-0.277,0.255,0.32,0.255,0.225,0.105,-0.015
0.148,-0.172,-0.32,0.013,0.235,-0.246,0.17,0.057,0.056,0.288,0.198,0.062
0.206,-0.081,-0.287,-0.062,0.246,-0.184,0.036,-0.303,-0.173,0.372,0.323,0.168
0.291,0.045,-0.246,-0.167,0.269,-0.1,-0.152,-0.709,-0.389,0.518,0.485,0.31
0.389,0.188,-0.201,-0.288,0.295,-0.006,-0.357,-1.089,-0.565,0.733,0.683,0.479
0.48,0.355,-0.125,-0.417,0.302,0.115,-0.535,-1.425,-0.725,0.975,0.91,0.665
0.554,0.537,-0.017,-0.546,0.285,0.259,-0.741,-1.769,-0.929,1.199,1.143,0.854
0.579,0.701,0.122,-0.64,0.228,0.411,-0.921,-2.103,-1.155,1.429,1.363,1.032
0.599,0.863,0.264,-0.732,0.168,0.563,-1.128,-2.392,-1.386,1.659,1.563,1.195
0.613,1.013,0.4,-0.814,0.107,0.706,-1.358,-2.658,-1.607,1.88,1.743,1.337
0.6,1.095,0.495,-0.848,0.052,0.795,-1.52,-2.885,-1.765,2.09,1.875,1.43
0.621,1.079,0.458,-0.851,0.082,0.768,-1.598,-2.94,-1.812,2.242,1.893,1.437
0.537,0.961,0.424,-0.749,0.057,0.692,-1.627,-2.896,-1.825,2.195,1.792,1.353
0.368,0.698,0.33,-0.533,0.019,0.513,-1.495,-2.735,-1.85,1.843,1.481,1.14
0.227,0.341,0.114,-0.284,0.056,0.227,-1.266,-2.49,-1.874,1.258,1.001,0.829
0.115,0.035,-0.08,-0.075,0.097,-0.022,-1.13,-2.285,-1.935,0.57,0.54,0.53
-0.066,-0.15,-0.085,0.108,0.009,-0.117,-1.032,-2.142,-2.132,-0.183,0.182,0.312
-0.176,-0.243,-0.067,0.21,-0.054,-0.155,-0.986,-2.047,-2.224,-0.708,-0.073,0.135
-0.22,-0.29,-0.07,0.255,-0.075,-0.18,-0.961,-1.94,-2.125,-0.987,-0.265,0.031
-0.242,-0.305,-0.063,0.274,-0.089,-0.184,-0.926,-1.772,-1.885,-1.051,-0.349,-0.027
-0.225,-0.29,-0.065,0.258,-0.08,-0.177,-0.865,-1.535,-1.57,-0.9,-0.3,-0.09
-0.173,-0.281,-0.108,0.228,-0.032,-0.194,-0.73,-1.245,-1.263,-0.708,-0.267,-0.085
-0.099,-0.275,-0.176,0.187,0.039,-0.225,-0.604,-0.991,-1.016,-0.559,-0.232,-0.072
-0.073,-0.264,-0.191,0.169,0.059,-0.227,-0.48,-0.769,-0.808,-0.446,-0.189,-0.068
-0.076,-0.253,-0.177,0.165,0.051,-0.215,-0.349,-0.553,-0.621,-0.346,-0.151,-0.063
-0.03,-0.245,-0.215,0.138,0.093,-0.23,-0.245,-0.37,-0.46,-0.26,-0.11,-0.055
0.01,-0.237,-0.247,0.113,0.129,-0.241,-0.17,-0.249,-0.324,-0.2,-0.067,-0.047
0.017,-0.232,-0.249,0.108,0.133,-0.24,-0.116,-0.158,-0.219,-0.135,-0.054,-0.041
0.016,-0.228,-0.244,0.106,0.13,-0.235,-0.062,-0.087,-0.135,-0.1,-0.055,-0.042
0.021,-0.225,-0.245,0.103,0.134,-0.235,-0.016,-0.023,-0.073,-0.1,-0.055,-0.046
0.02,-0.225,-0.245,0.103,0.133,-0.235,0.01,0.035,-0.035,-0.095,-0.055,-0.045
0.02,-0.221,-0.241,0.1,0.131,-0.231,0.04,0.05,0.003,-0.087,-0.051,-0.045
0.02,-0.22,-0.239,0.1,0.129,-0.23,0.05,0.054,0.022,-0.082,-0.049,-0.045
0.022,-0.219,-0.241,0.098,0.131,-0.229,0.051,0.069,0.028,-0.076,-0.051,-0.045
0.025,-0.214,-0.239,0.094,0.133,-0.226,0.057,0.089,0.038,-0.069,-0.049,-0.045
0.025,-0.21,-0.235,0.093,0.13,-0.222,0.065,0.1,0.05,-0.065,-0.045,-0.045
0.025,-0.21,-0.235,0.093,0.13,-0.222,0.068,0.106,0.056,-0.061,-0.045,-0.049
0.028,-0.207,-0.235,0.09,0.132,-0.221,0.083,0.127,0.081,-0.06,-0.046,-0.054
0.03,-0.205,-0.235,0.088,0.134,-0.22,0.092,0.134,0.102,-0.058,-0.043,-0.054
0.03,-0.204,-0.234,0.088,0.132,-0.219,0.09,0.133,0.106,-0.055,-0.04,-0.049
0.03,-0.2,-0.23,0.085,0.13,-0.215,0.09,0.155,0.11,-0.055,-0.04,-0.05
0.03,-0.2,-0.23,0.085,0.13,-0.215,0.09,0.16,0.11,-0.051,-0.04,-0.051
0.033,-0.197,-0.23,0.082,0.132,-0.213,0.09,0.159,0.113,-0.049,-0.037,-0.047
0.035,-0.195,-0.23,0.08,0.133,-0.212,0.09,0.162,0.115,-0.051,-0.034,-0.045
0.036,-0.194,-0.23,0.079,0.134,-0.212,0.09,0.165,0.117,-0.049,-0.035,-0.045
0.04,-0.19,-0.23,0.075,0.135,-0.21,0.09,0.165,0.125,-0.045,-0.035,-0.045
0.036,-0.19,-0.226,0.078,0.131,-0.208,0.098,0.169,0.127,-0.045,-0.031,-0.045
0.038,-0.187,-0.225,0.075,0.131,-0.205,0.104,0.174,0.148,-0.042,-0.029,-0.042
0.04,-0.185,-0.225,0.073,0.133,-0.205,0.103,0.174,0.165,-0.04,-0.031,-0.039
0.041,-0.184,-0.225,0.072,0.133,-0.205,0.1,0.178,0.165,-0.039,-0.029,-0.04
0.045,-0.18,-0.225,0.068,0.135,-0.202,0.1,0.19,0.165,-0.035,-0.025,-0.04
0.045,-0.18,-0.225,0.068,0.135,-0.202,0.1,0.187,0.169,-0.035,-0.025,-0.04
0.049,-0.177,-0.226,0.065,0.137,-0.201,0.1,0.182,0.17,-0.036,-0.025,-0.037
0.048,-0.175,-0.223,0.064,0.136,-0.199,0.1,0.195,0.172,-0.033,-0.025,-0.034
0.045,-0.174,-0.22,0.064,0.133,-0.196,0.099,0.212,0.175,-0.029,-0.024,-0.035
0.05,-0.17,-0.22,0.06,0.135,-0.195,0.095,0.21,0.175,-0.025,-0.02,-0.035
0.05,-0.17,-0.22,0.06,0.135,-0.195,0.095,0.21,0.183,-0.021,-0.016,-0.031
0.053,-0.167,-0.22,0.057,0.137,-0.193,0.095,0.21,0.189,-0.017,-0.012,-0.03
0.056,-0.165,-0.22,0.055,0.139,-0.192,0.095,0.21,0.192,-0.012,-0.008,-0.03
0.055,-0.164,-0.219,0.055,0.137,-0.191,0.095,0.21,0.196,-0.01,-0.004,-0.03
0.055,-0.16,-0.215,0.053,0.135,-0.187,0.095,0.21,0.2,-0.01,0.0,-0.03
0.055,-0.16,-0.215,0.053,0.135,-0.187,0.095,0.209,0.204,-0.002,0.0,-0.026
0.054,-0.161,-0.215,0.054,0.135,-0.187,0.092,0.216,0.205,0.004,0.003,-0.025
0.057,-0.158,-0.215,0.051,0.136,-0.186,0.089,0.221,0.207,0.007,0.007,-0.025
0.06,-0.155,-0.215,0.048,0.138,-0.185,0.09,0.219,0.21,0.011,0.011,-0.025
0.06,-0.155,-0.215,0.048,0.138,-0.185,0.09,0.22,0.21,0.015,0.015,-0.025
0.065,-0.151,-0.215,0.044,0.14,-0.183,0.09,0.232,0.218,0.019,0.019,-0.021
0.062,-0.149,-0.212,0.044,0.137,-0.18,0.091,0.24,0.227,0.023,0.023,-0.02
0.059,-0.151,-0.21,0.046,0.134,-0.181,0.088,0.24,0.232,0.027,0.027,-0.018
0.061,-0.148,-0.209,0.044,0.135,-0.179,0.085,0.241,0.236,0.031,0.031,-0.015
0.065,-0.14,-0.205,0.038,0.135,-0.172,0.085,0.245,0.24,0.035,0.035,-0.015
0.069,-0.136,-0.205,0.034,0.138,-0.17,0.085,0.245,0.245,0.04,0.035,-0.011
0.07,-0.132,-0.202,0.031,0.136,-0.167,0.085,0.248,0.244,0.04,0.038,-0.009
0.072,-0.128,-0.2,0.028,0.136,-0.164,0.085,0.25,0.25,0.043,0.04,-0.011
0.075,-0.124,-0.199,0.024,0.138,-0.161,0.085,0.251,0.262,0.052,0.041,-0.009
0.075,-0.12,-0.195,0.023,0.135,-0.157,0.085,0.255,0.265,0.06,0.05,-0.005
0.079,-0.116,-0.195,0.019,0.137,-0.156,0.081,0.255,0.269,0.064,0.054,-0.005
0.083,-0.109,-0.192,0.013,0.138,-0.15,0.077,0.258,0.273,0.068,0.058,-0.002
0.087,-0.102,-0.19,0.007,0.139,-0.146,0.073,0.26,0.277,0.072,0.061,0.0
0.09,-0.099,-0.189,0.005,0.14,-0.144,0.07,0.261,0.281,0.076,0.06,0.001
0.09,-0.095,-0.185,0.003,0.138,-0.14,0.07,0.27,0.285,0.08,0.06,0.005
0.09,-0.091,-0.181,0.001,0.135,-0.136,0.066,0.274,0.289,0.08,0.064,0.005
0.09,-0.087,-0.177,-0.001,0.134,-0.132,0.061,0.278,0.293,0.083,0.066,0.004
0.09,-0.083,-0.173,-0.003,0.132,-0.128,0.06,0.282,0.297,0.085,0.064,0.007
0.09,-0.078,-0.169,-0.006,0.129,-0.123,0.059,0.286,0.301,0.086,0.067,0.01
0.095,-0.07,-0.165,-0.012,0.13,-0.117,0.055,0.29,0.305,0.095,0.075,0.01
0.104,-0.062,-0.166,-0.021,0.135,-0.113,0.051,0.29,0.309,0.099,0.075,0.014
0.102,-0.057,-0.159,-0.022,0.131,-0.108,0.05,0.293,0.313,0.103,0.075,0.016
0.101,-0.052,-0.152,-0.024,0.127,-0.102,0.049,0.295,0.316,0.107,0.075,0.014
0.107,-0.043,-0.149,-0.032,0.128,-0.095,0.044,0.296,0.323,0.111,0.075,0.016
0.11,-0.035,-0.145,-0.037,0.128,-0.09,0.04,0.3,0.335,0.115,0.075,0.02
0.109,-0.032,-0.141,-0.039,0.125,-0.086,0.036,0.304,0.336,0.116,0.075,0.02
0.116,-0.021,-0.137,-0.047,0.127,-0.079,0.032,0.311,0.333,0.113,0.074,0.019
0.122,-0.011,-0.133,-0.055,0.128,-0.072,0.028,0.318,0.342,0.122,0.08,0.022
0.127,-0.002,-0.129,-0.062,0.128,-0.065,0.024,0.321,0.357,0.138,0.092,0.025
0.135,0.01,-0.125,-0.072,0.13,-0.057,0.02,0.325,0.36,0.14,0.095,0.025
0.143,0.018,-0.125,-0.08,0.134,-0.053,0.012,0.329,0.363,0.14,0.095,0.025
0.151,0.029,-0.122,-0.09,0.136,-0.046,0.007,0.336,0.371,0.14,0.094,0.028
0.159,0.039,-0.12,-0.099,0.139,-0.04,0.003,0.342,0.378,0.139,0.097,0.031
0.167,0.048,-0.119,-0.107,0.143,-0.035,-0.001,0.347,0.38,0.142,0.1,0.03
0.175,0.06,-0.115,-0.117,0.145,-0.027,-0.005,0.355,0.385,0.15,0.1,0.03
0.183,0.067,-0.115,-0.124,0.149,-0.023,-0.009,0.359,0.398,0.154,0.1,0.033
0.194,0.082,-0.112,-0.138,0.153,-0.015,-0.013,0.362,0.403,0.161,0.101,0.04
0.204,0.094,-0.11,-0.149,0.156,-0.008,-0.017,0.369,0.41,0.169,0.097,0.036
0.205,0.095,-0.109,-0.15,0.156,-0.006,-0.02,0.385,0.423,0.178,0.106,0.038
0.205,0.1,-0.105,-0.152,0.155,-0.002,-0.02,0.405,0.435,0.19,0.135,0.06
0.214,0.108,-0.105,-0.16,0.159,0.001,-0.024,0.414,0.447,0.198,0.141,0.065
0.215,0.113,-0.102,-0.164,0.158,0.005,-0.025,0.417,0.459,0.205,0.14,0.067
0.218,0.119,-0.099,-0.169,0.158,0.009,-0.027,0.427,0.469,0.216,0.14,0.073
0.227,0.126,-0.1,-0.176,0.163,0.013,-0.03,0.444,0.477,0.227,0.14,0.075
0.23,0.13,-0.1,-0.18,0.165,0.015,-0.03,0.455,0.49,0.23,0.14,0.075
0.236,0.141,-0.096,-0.188,0.166,0.022,-0.038,0.463,0.508,0.238,0.148,0.079
0.256,0.161,-0.094,-0.208,0.175,0.033,-0.041,0.472,0.509,0.243,0.152,0.08
0.269,0.174,-0.096,-0.221,0.182,0.039,-0.039,0.493,0.52,0.25,0.162,0.083
0.27,0.176,-0.094,-0.222,0.182,0.041,-0.042,0.513,0.545,0.263,0.178,0.092
0.27,0.18,-0.09,-0.225,0.18,0.045,-0.055,0.515,0.555,0.27,0.18,0.1
0.273,0.184,-0.09,-0.229,0.181,0.046,-0.064,0.526,0.563,0.275,0.18,0.104
0.282,0.192,-0.09,-0.237,0.186,0.051,-0.068,0.539,0.57,0.276,0.182,0.111
0.301,0.211,-0.09,-0.256,0.196,0.06,-0.074,0.552,0.584,0.29,0.191,0.118
0.316,0.227,-0.089,-0.272,0.202,0.068,-0.081,0.569,0.605,0.316,0.202,0.121
0.315,0.23,-0.085,-0.272,0.2,0.072,-0.085,0.585,0.62,0.33,0.205,0.125
0.326,0.241,-0.085,-0.283,0.205,0.078,-0.092,0.594,0.629,0.335,0.209,0.128
0.339,0.254,-0.085,-0.296,0.212,0.084,-0.104,0.599,0.631,0.336,0.215,0.136
0.351,0.266,-0.085,-0.308,0.218,0.09,-0.115,0.615,0.644,0.347,0.225,0.141
0.371,0.287,-0.084,-0.329,0.228,0.101,-0.121,0.633,0.663,0.364,0.239,0.148
0.395,0.315,-0.08,-0.355,0.237,0.117,-0.125,0.64,0.67,0.375,0.255,0.165
0.4,0.321,-0.08,-0.361,0.24,0.12,-0.13,0.661,0.686,0.386,0.268,0.173
0.399,0.319,-0.08,-0.359,0.24,0.12,-0.128,0.67,0.7,0.403,0.273,0.182
0.402,0.322,-0.08,-0.362,0.241,0.121,-0.137,0.67,0.708,0.414,0.279,0.186
0.405,0.325,-0.079,-0.365,0.241,0.123,-0.153,0.679,0.719,0.424,0.294,0.194
0.4,0.325,-0.075,-0.362,0.237,0.125,-0.155,0.7,0.735,0.445,0.31,0.21
0.402,0.327,-0.075,-0.364,0.238,0.126,-0.154,0.709,0.734,0.454,0.314,0.213
0.421,0.346,-0.075,-0.383,0.248,0.135,-0.161,0.714,0.747,0.459,0.323,0.227
0.433,0.358,-0.075,-0.395,0.253,0.141,-0.167,0.714,0.759,0.474,0.336,0.239
0.438,0.363,-0.075,-0.4,0.257,0.143,-0.172,0.709,0.761,0.487,0.349,0.248
0.455,0.38,-0.075,-0.417,0.265,0.152,-0.185,0.705,0.765,0.49,0.365,0.265
0.46,0.389,-0.071,-0.424,0.265,0.159,-0.198,0.701,0.769,0.506,0.37,0.27
0.463,0.393,-0.07,-0.428,0.266,0.161,-0.204,0.7,0.771,0.518,0.368,0.269
0.467,0.397,-0.07,-0.432,0.268,0.163,-0.22,0.699,0.766,0.521,0.377,0.273
0.471,0.401,-0.07,-0.436,0.271,0.165,-0.237,0.694,0.759,0.528,0.393,0.282
0.475,0.405,-0.07,-0.44,0.272,0.167,-0.235,0.69,0.755,0.54,0.4,0.29
0.47,0.404,-0.066,-0.437,0.267,0.169,-0.233,0.69,0.751,0.536,0.404,0.293
0.476,0.412,-0.065,-0.443,0.27,0.173,-0.247,0.688,0.747,0.535,0.408,0.305
0.496,0.431,-0.065,-0.463,0.281,0.183,-0.259,0.682,0.743,0.533,0.412,0.31
0.512,0.447,-0.065,-0.479,0.288,0.191,-0.26,0.68,0.74,0.53,0.416,0.304
0.51,0.445,-0.065,-0.477,0.287,0.19,-0.26,0.68,0.735,0.53,0.42,0.305
0.509,0.443,-0.065,-0.475,0.286,0.189,-0.265,0.665,0.719,0.526,0.421,0.305
0.517,0.455,-0.062,-0.486,0.29,0.196,-0.263,0.649,0.703,0.525,0.417,0.305
0.517,0.46,-0.057,-0.488,0.287,0.201,-0.273,0.629,0.686,0.523,0.413,0.305
0.509,0.454,-0.055,-0.481,0.281,0.2,-0.286,0.604,0.672,0.52,0.409,0.304
0.51,0.455,-0.055,-0.482,0.282,0.2,-0.28,0.58,0.66,0.52,0.405,0.3
0.506,0.456,-0.051,-0.481,0.278,0.202,-0.279,0.552,0.637,0.516,0.401,0.3
0.502,0.452,-0.05,-0.477,0.276,0.201,-0.281,0.527,0.611,0.516,0.397,0.3
0.498,0.449,-0.049,-0.473,0.273,0.2,-0.278,0.503,0.589,0.51,0.394,0.3
0.494,0.451,-0.044,-0.472,0.269,0.203,-0.274,0.48,0.571,0.497,0.387,0.301
0.49,0.45,-0.04,-0.47,0.265,0.205,-0.275,0.46,0.555,0.485,0.375,0.3
0.475,0.435,-0.04,-0.455,0.258,0.197,-0.276,0.436,0.531,0.473,0.367,0.285
0.454,0.418,-0.037,-0.436,0.245,0.19,-0.267,0.415,0.507,0.462,0.356,0.268
0.438,0.402,-0.036,-0.42,0.237,0.183,-0.254,0.392,0.481,0.444,0.347,0.252
0.418,0.386,-0.033,-0.401,0.225,0.176,-0.242,0.363,0.453,0.42,0.335,0.237
0.385,0.37,-0.015,-0.377,0.2,0.177,-0.23,0.335,0.425,0.4,0.31,0.225
0.36,0.362,0.001,-0.361,0.179,0.181,-0.222,0.303,0.393,0.373,0.289,0.209
0.338,0.354,0.016,-0.347,0.161,0.185,-0.211,0.273,0.363,0.343,0.273,0.196
0.311,0.346,0.035,-0.329,0.138,0.19,-0.2,0.249,0.339,0.319,0.258,0.184
0.293,0.339,0.046,-0.316,0.124,0.192,-0.193,0.231,0.321,0.3,0.239,0.172
0.29,0.33,0.04,-0.31,0.125,0.185,-0.185,0.215,0.305,0.28,0.215,0.16
0.264,0.303,0.04,-0.283,0.112,0.171,-0.173,0.195,0.277,0.256,0.195,0.136
0.231,0.272,0.04,-0.252,0.095,0.156,-0.163,0.175,0.251,0.232,0.173,0.114
0.213,0.254,0.04,-0.234,0.087,0.147,-0.157,0.155,0.228,0.208,0.147,0.097
0.21,0.249,0.04,-0.229,0.085,0.144,-0.146,0.135,0.204,0.185,0.125,0.081
0.205,0.245,0.04,-0.225,0.082,0.142,-0.13,0.115,0.18,0.165,0.105,0.065
0.194,0.237,0.043,-0.215,0.075,0.139,-0.118,0.098,0.16,0.141,0.085,0.049
0.209,0.232,0.024,-0.22,0.092,0.128,-0.103,0.086,0.14,0.12,0.068,0.033
0.194,0.226,0.033,-0.21,0.081,0.129,-0.088,0.072,0.12,0.099,0.052,0.017
0.154,0.219,0.065,-0.186,0.044,0.142,-0.078,0.057,0.1,0.074,0.036,0.001
0.15,0.215,0.065,-0.183,0.042,0.14,-0.07,0.045,0.08,0.05,0.02,-0.015
0.144,0.207,0.063,-0.176,0.04,0.135,-0.062,0.033,0.068,0.033,0.008,-0.031
0.121,0.199,0.078,-0.16,0.021,0.139,-0.054,0.023,0.056,0.021,-0.004,-0.044
0.106,0.191,0.085,-0.149,0.01,0.138,-0.046,0.017,0.044,0.007,-0.014,-0.056
0.104,0.183,0.079,-0.143,0.012,0.131,-0.038,0.007,0.032,-0.009,-0.023,-0.068
0.095,0.175,0.08,-0.135,0.007,0.127,-0.03,-0.005,0.02,-0.02,-0.035,-0.08
0.086,0.167,0.08,-0.127,0.003,0.123,-0.026,-0.013,0.012,-0.028,-0.043,-0.084
0.082,0.162,0.08,-0.122,0.001,0.121,-0.022,-0.021,0.004,-0.037,-0.054,-0.087
0.076,0.157,0.08,-0.116,-0.002,0.119,-0.018,-0.028,-0.002,-0.041,-0.064,-0.094
0.069,0.148,0.079,-0.108,-0.005,0.113,-0.014,-0.03,-0.007,-0.048,-0.072,-0.101
0.065,0.14,0.075,-0.103,-0.005,0.107,-0.01,-0.03,-0.015,-0.065,-0.08,-0.105
0.061,0.136,0.075,-0.099,-0.007,0.105,-0.006,-0.03,-0.023,-0.07,-0.084,-0.109
0.054,0.129,0.075,-0.092,-0.011,0.102,-0.001,-0.03,-0.028,-0.069,-0.088,-0.113
0.046,0.121,0.075,-0.084,-0.015,0.098,0.0,-0.03,-0.032,-0.073,-0.092,-0.117
0.038,0.113,0.075,-0.076,-0.019,0.094,0.001,-0.031,-0.035,-0.082,-0.097,-0.12
0.035,0.11,0.075,-0.073,-0.02,0.092,0.005,-0.035,-0.035,-0.085,-0.105,-0.12
0.039,0.114,0.075,-0.077,-0.019,0.095,0.005,-0.035,-0.039,-0.084,-0.11,-0.12
0.044,0.115,0.072,-0.08,-0.015,0.093,0.008,-0.035,-0.04,-0.091,-0.11,-0.123
0.045,0.115,0.069,-0.08,-0.013,0.092,0.01,-0.035,-0.042,-0.098,-0.111,-0.126
0.045,0.115,0.07,-0.08,-0.013,0.092,0.011,-0.035,-0.045,-0.101,-0.109,-0.125
0.045,0.115,0.07,-0.08,-0.013,0.092,0.015,-0.035,-0.045,-0.105,-0.11,-0.125
0.045,0.115,0.07,-0.08,-0.013,0.092,0.015,-0.031,-0.049,-0.109,-0.131,-0.129
0.044,0.115,0.071,-0.08,-0.014,0.092,0.014,-0.029,-0.05,-0.113,-0.134,-0.13
0.047,0.115,0.068,-0.081,-0.011,0.091,0.017,-0.031,-0.05,-0.116,-0.129,-0.13
0.05,0.115,0.065,-0.083,-0.008,0.09,0.02,-0.029,-0.05,-0.114,-0.13,-0.13
0.05,0.115,0.065,-0.083,-0.008,0.09,0.02,-0.025,-0.05,-0.11,-0.13,-0.13
0.05,0.115,0.065,-0.083,-0.008,0.09,0.024,-0.025,-0.05,-0.11,-0.13,-0.13
0.05,0.115,0.065,-0.083,-0.008,0.09,0.025,-0.025,-0.05,-0.11,-0.13,-0.13
0.05,0.115,0.065,-0.083,-0.008,0.09,0.027,-0.025,-0.05,-0.11,-0.13,-0.13
0.05,0.115,0.065,-0.083,-0.008,0.09,0.031,-0.024,-0.05,-0.11,-0.13,-0.131
0.05,0.115,0.065,-0.083,-0.008,0.09,0.03,-0.02,-0.05,-0.11,-0.13,-0.135
0.054,0.115,0.061,-0.084,-0.004,0.088,0.028,-0.02,-0.05,-0.11,-0.13,-0.135
0.059,0.115,0.056,-0.087,0.001,0.085,0.043,-0.021,-0.05,-0.11,-0.13,-0.135
0.06,0.115,0.055,-0.088,0.002,0.085,0.05,-0.018,-0.05,-0.11,-0.13,-0.135
0.061,0.115,0.054,-0.088,0.003,0.085,0.044,-0.015,-0.05,-0.11,-0.13,-0.135
0.065,0.115,0.05,-0.09,0.007,0.082,0.045,-0.015,-0.05,-0.11,-0.13,-0.135
0.069,0.115,0.046,-0.092,0.011,0.08,0.045,-0.015,-0.05,-0.11,-0.126,-0.135
0.072,0.115,0.043,-0.094,0.014,0.079,0.045,-0.016,-0.05,-0.111,-0.125,-0.134
0.063,0.115,0.052,-0.089,0.005,0.084,0.045,-0.013,-0.05,-0.108,-0.125,-0.137
0.047,0.115,0.068,-0.082,-0.011,0.091,0.045,-0.01,-0.05,-0.105,-0.125,-0.14
0.045,0.115,0.07,-0.08,-0.013,0.092,0.045,-0.01,-0.05,-0.105,-0.125,-0.14
0.043,0.115,0.073,-0.079,-0.015,0.094,0.045,-0.01,-0.05,-0.105,-0.125,-0.14
0.027,0.114,0.087,-0.071,-0.031,0.101,0.045,-0.01,-0.05,-0.105,-0.125,-0.14
0.02,0.118,0.099,-0.069,-0.04,0.108,0.045,-0.01,-0.05,-0.105,-0.125,-0.14
0.027,0.127,0.1,-0.077,-0.037,0.113,0.045,-0.009,-0.05,-0.105,-0.125,-0.14
0.03,0.13,0.1,-0.08,-0.035,0.115,0.045,-0.005,-0.05,-0.105,-0.125,-0.14
0.031,0.13,0.1,-0.08,-0.034,0.115,0.045,-0.005,-0.05,-0.105,-0.125,-0.14
0.027,0.13,0.103,-0.079,-0.038,0.116,0.042,-0.005,-0.05,-0.105,-0.125,-0.14
0.025,0.13,0.105,-0.078,-0.04,0.117,0.039,-0.005,-0.049,-0.105,-0.125,-0.138
0.025,0.13,0.105,-0.078,-0.04,0.117,0.04,-0.005,-0.044,-0.105,-0.124,-0.134
0.03,0.135,0.105,-0.083,-0.038,0.12,0.04,-0.005,-0.04,-0.105,-0.12,-0.13
0.046,0.148,0.103,-0.097,-0.029,0.125,0.04,-0.005,-0.04,-0.105,-0.12,-0.126
0.026,0.148,0.122,-0.087,-0.048,0.134,0.04,-0.002,-0.038,-0.102,-0.121,-0.125
0.016,0.144,0.128,-0.08,-0.056,0.135,0.04,0.001,-0.033,-0.099,-0.118,-0.124
0.034,0.145,0.112,-0.09,-0.04,0.129,0.04,0.0,-0.03,-0.1,-0.115,-0.119
0.04,0.145,0.105,-0.093,-0.033,0.125,0.04,0.0,-0.03,-0.1,-0.115,-0.115
0.044,0.141,0.097,-0.093,-0.027,0.119,0.04,0.0,-0.03,-0.096,-0.115,-0.115
0.051,0.139,0.089,-0.096,-0.019,0.114,0.04,-0.001,-0.03,-0.095,-0.115,-0.112
0.059,0.141,0.081,-0.1,-0.011,0.11,0.04,0.002,-0.03,-0.095,-0.113,-0.108
0.066,0.139,0.073,-0.103,-0.003,0.106,0.04,0.005,-0.03,-0.095,-0.11,-0.104
0.07,0.135,0.065,-0.103,0.002,0.1,0.04,0.005,-0.03,-0.095,-0.11,-0.105
0.074,0.135,0.061,-0.104,0.006,0.097,0.036,0.005,-0.03,-0.091,-0.11,-0.109
0.079,0.136,0.057,-0.108,0.011,0.096,0.035,0.005,-0.03,-0.09,-0.107,-0.11
0.078,0.133,0.055,-0.106,0.011,0.094,0.035,0.005,-0.03,-0.09,-0.104,-0.11
0.075,0.13,0.054,-0.103,0.01,0.091,0.035,0.005,-0.03,-0.09,-0.105,-0.11
0.08,0.13,0.05,-0.105,0.015,0.09,0.035,0.005,-0.03,-0.09,-0.105,-0.11
0.084,0.13,0.047,-0.108,0.019,0.088,0.031,0.001,-0.03,-0.086,-0.105,-0.11
0.087,0.127,0.04,-0.107,0.023,0.083,0.03,-0.001,-0.03,-0.084,-0.108,-0.11
0.064,0.124,0.061,-0.094,0.001,0.093,0.03,0.001,-0.03,-0.086,-0.111,-0.11
0.038,0.125,0.088,-0.082,-0.025,0.106,0.03,-0.001,-0.03,-0.084,-0.11,-0.11
0.045,0.125,0.08,-0.085,-0.018,0.102,0.03,-0.005,-0.03,-0.08,-0.11,-0.11
0.041,0.121,0.08,-0.081,-0.019,0.1,0.026,-0.005,-0.03,-0.08,-0.11,-0.11
0.042,0.119,0.077,-0.081,-0.017,0.098,0.025,-0.005,-0.03,-0.08,-0.11,-0.11
0.046,0.121,0.075,-0.084,-0.014,0.097,0.025,-0.005,-0.03,-0.08,-0.11,-0.11
0.045,0.119,0.074,-0.082,-0.015,0.096,0.025,-0.006,-0.03,-0.079,-0.11,-0.111
0.045,0.115,0.07,-0.08,-0.013,0.092,0.025,-0.01,-0.03,-0.075,-0.11,-0.115
0.045,0.115,0.07,-0.08,-0.013,0.092,0.025,-0.01,-0.03,-0.075,-0.11,-0.115
0.045,0.112,0.067,-0.079,-0.011,0.089,0.022,-0.01,-0.03,-0.075,-0.11,-0.115
0.044,0.109,0.065,-0.077,-0.01,0.087,0.019,-0.01,-0.03,-0.075,-0.11,-0.115
0.046,0.11,0.064,-0.079,-0.009,0.087,0.02,-0.011,-0.03,-0.075,-0.11,-0.115
0.05,0.11,0.06,-0.08,-0.005,0.085,0.02,-0.015,-0.03,-0.075,-0.11,-0.115
0.046,0.106,0.06,-0.076,-0.007,0.082,0.02,-0.015,-0.03,-0.075,-0.11,-0.115
0.044,0.104,0.06,-0.074,-0.008,0.082,0.017,-0.014,-0.03,-0.075,-0.11,-0.115
0.046,0.106,0.06,-0.076,-0.008,0.082,0.014,-0.017,-0.032,-0.074,-0.11,-0.115
0.044,0.104,0.06,-0.074,-0.008,0.082,0.015,-0.02,-0.036,-0.077,-0.11,-0.115
0.04,0.1,0.06,-0.07,-0.01,0.08,0.015,-0.02,-0.04,-0.09,-0.11,-0.115
0.04,0.1,0.06,-0.07,-0.01,0.08,0.015,-0.02,-0.044,-0.095,-0.11,-0.115
0.041,0.101,0.06,-0.071,-0.01,0.08,0.015,-0.019,-0.045,-0.095,-0.11,-0.114
0.038,0.098,0.06,-0.068,-0.011,0.079,0.017,-0.022,-0.045,-0.095,-0.11,-0.117
0.034,0.095,0.06,-0.065,-0.013,0.077,0.021,-0.025,-0.044,-0.096,-0.11,-0.12
0.035,0.095,0.06,-0.065,-0.013,0.077,0.025,-0.025,-0.045,-0.1,-0.11,-0.12
0.036,0.094,0.058,-0.065,-0.011,0.075,0.029,-0.025,-0.061,-0.101,-0.11,-0.12
0.028,0.104,0.076,-0.066,-0.024,0.09,0.034,-0.023,-0.069,-0.098,-0.11,-0.12
0.043,0.129,0.086,-0.087,-0.022,0.107,0.034,-0.032,-0.071,-0.105,-0.11,-0.12
0.067,0.146,0.079,-0.107,-0.006,0.112,0.029,-0.048,-0.076,-0.117,-0.111,-0.12
0.06,0.14,0.08,-0.1,-0.01,0.11,0.03,-0.05,-0.08,-0.12,-0.115,-0.12
0.059,0.139,0.08,-0.099,-0.01,0.11,0.03,-0.05,-0.08,-0.12,-0.115,-0.12
0.06,0.141,0.08,-0.101,-0.01,0.111,0.031,-0.05,-0.083,-0.119,-0.114,-0.123
0.06,0.138,0.078,-0.099,-0.009,0.108,0.028,-0.05,-0.085,-0.122,-0.117,-0.126
0.06,0.135,0.075,-0.098,-0.008,0.105,0.025,-0.05,-0.086,-0.125,-0.12,-0.125
0.06,0.135,0.075,-0.098,-0.008,0.105,0.025,-0.05,-0.09,-0.125,-0.12,-0.125
0.061,0.135,0.075,-0.098,-0.008,0.105,0.025,-0.05,-0.09,-0.125,-0.12,-0.125
0.056,0.132,0.076,-0.095,-0.01,0.103,0.026,-0.053,-0.093,-0.125,-0.117,-0.125
0.056,0.129,0.073,-0.093,-0.008,0.101,0.023,-0.055,-0.096,-0.125,-0.114,-0.125
0.061,0.13,0.07,-0.095,-0.004,0.1,0.02,-0.056,-0.095,-0.125,-0.115,-0.125
0.06,0.13,0.07,-0.095,-0.005,0.1,0.02,-0.06,-0.095,-0.125,-0.115,-0.125
0.056,0.126,0.07,-0.091,-0.008,0.098,0.02,-0.06,-0.095,-0.125,-0.115,-0.121
0.055,0.124,0.07,-0.09,-0.008,0.097,0.02,-0.063,-0.095,-0.125,-0.115,-0.12
0.055,0.126,0.07,-0.09,-0.008,0.098,0.02,-0.066,-0.095,-0.125,-0.115,-0.12
0.055,0.124,0.069,-0.09,-0.008,0.096,0.019,-0.064,-0.095,-0.125,-0.115,-0.12
0.055,0.12,0.065,-0.088,-0.005,0.092,0.015,-0.06,-0.095,-0.125,-0.115,-0.12
0.055,0.12,0.065,-0.088,-0.005,0.092,0.015,-0.06,-0.095,-0.125,-0.115,-0.12
0.056,0.121,0.065,-0.089,-0.005,0.092,0.015,-0.06,-0.095,-0.125,-0.115,-0.12
0.053,0.118,0.065,-0.086,-0.007,0.091,0.015,-0.06,-0.095,-0.125,-0.115,-0.12
0.05,0.114,0.064,-0.083,-0.007,0.089,0.014,-0.06,-0.095,-0.125,-0.115,-0.12
0.055,0.115,0.06,-0.085,-0.003,0.087,0.01,-0.06,-0.095,-0.125,-0.115,-0.12
0.056,0.116,0.06,-0.086,-0.002,0.087,0.01,-0.06,-0.095,-0.125,-0.115,-0.12
0.049,0.109,0.06,-0.079,-0.006,0.084,0.01,-0.06,-0.095,-0.125,-0.115,-0.12
0.043,0.102,0.06,-0.072,-0.009,0.081,0.01,-0.06,-0.095,-0.125,-0.115,-0.12
0.039,0.099,0.06,-0.069,-0.011,0.08,0.01,-0.06,-0.095,-0.125,-0.115,-0.12
0.035,0.095,0.06,-0.065,-0.013,0.077,0.01,-0.06,-0.095,-0.125,-0.115,-0.12
0.035,0.091,0.056,-0.063,-0.01,0.073,0.006,-0.06,-0.095,-0.125,-0.115,-0.12
0.033,0.087,0.054,-0.061,-0.011,0.071,0.005,-0.061,-0.095,-0.125,-0.115,-0.12
0.027,0.082,0.056,-0.055,-0.015,0.069,0.005,-0.058,-0.095,-0.125,-0.115,-0.12
0.026,0.08,0.054,-0.054,-0.014,0.067,0.005,-0.055,-0.095,-0.125,-0.115,-0.12
0.035,0.085,0.05,-0.06,-0.008,0.067,0.005,-0.055,-0.095,-0.125,-0.115,-0.12
0.036,0.085,0.05,-0.06,-0.008,0.067,0.005,-0.055,-0.095,-0.125,-0.115,-0.12
0.034,0.085,0.051,-0.059,-0.009,0.067,0.002,-0.055,-0.095,-0.125,-0.115,-0.12
0.037,0.085,0.048,-0.061,-0.006,0.066,-0.001,-0.055,-0.095,-0.125,-0.115,-0.12
0.04,0.085,0.045,-0.063,-0.003,0.065,0.0,-0.055,-0.095,-0.124,-0.114,-0.12
0.04,0.085,0.045,-0.063,-0.003,0.065,0.0,-0.055,-0.095,-0.12,-0.11,-0.12
0.04,0.085,0.045,-0.063,-0.003,0.065,0.0,-0.055,-0.095,-0.12,-0.11,-0.12
0.041,0.085,0.044,-0.063,-0.002,0.065,0.0,-0.055,-0.095,-0.12,-0.11,-0.12
0.038,0.085,0.047,-0.062,-0.005,0.066,0.0,-0.055,-0.095,-0.12,-0.11,-0.12
0.034,0.085,0.05,-0.06,-0.009,0.067,-0.001,-0.055,-0.095,-0.12,-0.11,-0.12
0.035,0.085,0.05,-0.06,-0.008,0.067,-0.005,-0.055,-0.095,-0.12,-0.11,-0.12
0.039,0.089,0.05,-0.064,-0.005,0.069,-0.005,-0.055,-0.095,-0.12,-0.11,-0.12
0.04,0.09,0.05,-0.065,-0.005,0.07,-0.005,-0.058,-0.098,-0.12,-0.11,-0.12
0.04,0.09,0.05,-0.065,-0.005,0.07,-0.005,-0.06,-0.101,-0.12,-0.11,-0.12
0.04,0.09,0.05,-0.065,-0.005,0.07,-0.005,-0.061,-0.1,-0.12,-0.11,-0.12
0.04,0.09,0.05,-0.065,-0.005,0.07,-0.005,-0.065,-0.1,-0.12,-0.11,-0.12
0.04,0.09,0.05,-0.065,-0.005,0.07,-0.009,-0.065,-0.1,-0.12,-0.11,-0.12
0.04,0.09,0.05,-0.065,-0.005,0.07,-0.01,-0.068,-0.1,-0.12,-0.11,-0.12
0.04,0.09,0.05,-0.065,-0.005,0.07,-0.01,-0.07,-0.099,-0.12,-0.11,-0.12
0.04,0.09,0.05,-0.065,-0.005,0.07,-0.01,-0.071,-0.101,-0.12,-0.11,-0.12
0.04,0.09,0.05,-0.065,-0.005,0.07,-0.01,-0.075,-0.105,-0.12,-0.11,-0.12
0.039,0.09,0.051,-0.064,-0.006,0.07,-0.01,-0.075,-0.103,-0.12,-0.11,-0.12
0.047,0.093,0.046,-0.07,0.0,0.069,-0.011,-0.075,-0.118,-0.12,-0.11,-0.12
0.033,0.097,0.064,-0.065,-0.016,0.08,-0.008,-0.075,-0.125,-0.12,-0.11,-0.12
0.014,0.101,0.087,-0.058,-0.037,0.094,-0.005,-0.075,-0.119,-0.12,-0.11,-0.12
0.025,0.105,0.08,-0.065,-0.028,0.092,-0.005,-0.075,-0.12,-0.12,-0.11,-0.12
0.026,0.106,0.08,-0.066,-0.028,0.092,-0.005,-0.075,-0.12,-0.12,-0.11,-0.124
0.024,0.102,0.077,-0.063,-0.027,0.089,-0.005,-0.075,-0.12,-0.12,-0.11,-0.129
0.026,0.1,0.074,-0.063,-0.024,0.087,-0.005,-0.075,-0.12,-0.12,-0.11,-0.128
0.024,0.099,0.075,-0.062,-0.026,0.087,-0.005,-0.075,-0.12,-0.12,-0.11,-0.124
0.02,0.095,0.075,-0.058,-0.028,0.085,-0.005,-0.075,-0.12,-0.12,-0.11,-0.125
0.024,0.095,0.071,-0.059,-0.024,0.082,-0.005,-0.075,-0.12,-0.12,-0.11,-0.125
0.026,0.096,0.069,-0.061,-0.022,0.082,-0.002,-0.075,-0.117,-0.123,-0.113,-0.126
0.022,0.093,0.071,-0.058,-0.024,0.082,0.001,-0.075,-0.114,-0.126,-0.116,-0.123
0.021,0.09,0.069,-0.055,-0.024,0.079,0.0,-0.075,-0.115,-0.125,-0.115,-0.12
0.025,0.09,0.065,-0.058,-0.02,0.077,0.0,-0.075,-0.115,-0.125,-0.115,-0.12
0.021,0.086,0.065,-0.054,-0.022,0.075,0.0,-0.075,-0.115,-0.125,-0.115,-0.12
0.019,0.084,0.066,-0.052,-0.024,0.075,0.0,-0.078,-0.115,-0.125,-0.115,-0.121
0.023,0.086,0.063,-0.054,-0.021,0.074,0.0,-0.081,-0.115,-0.125,-0.115,-0.118
0.024,0.084,0.06,-0.054,-0.018,0.072,0.0,-0.08,-0.115,-0.125,-0.115,-0.115
0.02,0.08,0.06,-0.05,-0.02,0.07,0.0,-0.08,-0.115,-0.125,-0.115,-0.115
0.024,0.08,0.056,-0.053,-0.016,0.068,0.004,-0.08,-0.111,-0.125,-0.115,-0.115
0.023,0.077,0.054,-0.05,-0.016,0.065,0.005,-0.08,-0.11,-0.125,-0.115,-0.115
0.019,0.074,0.056,-0.047,-0.019,0.065,0.005,-0.08,-0.11,-0.125,-0.115,-0.115
0.021,0.075,0.054,-0.049,-0.017,0.065,0.005,-0.08,-0.11,-0.125,-0.115,-0.114
0.025,0.075,0.05,-0.05,-0.013,0.062,0.005,-0.08,-0.11,-0.125,-0.115,-0.11
0.021,0.071,0.05,-0.046,-0.014,0.06,0.005,-0.08,-0.11,-0.129,-0.115,-0.11
0.019,0.07,0.051,-0.044,-0.016,0.06,0.005,-0.08,-0.11,-0.13,-0.115,-0.11
0.022,0.07,0.048,-0.046,-0.013,0.059,0.005,-0.08,-0.11,-0.13,-0.115,-0.11
0.025,0.07,0.045,-0.048,-0.01,0.057,0.005,-0.08,-0.11,-0.13,-0.115,-0.109
0.025,0.07,0.045,-0.048,-0.01,0.057,0.005,-0.08,-0.11,-0.13,-0.115,-0.105
0.025,0.07,0.045,-0.048,-0.01,0.057,0.001,-0.08,-0.11,-0.13,-0.115,-0.105
0.028,0.07,0.042,-0.049,-0.007,0.056,-0.001,-0.08,-0.11,-0.13,-0.115,-0.105
0.03,0.07,0.04,-0.05,-0.005,0.055,0.002,-0.08,-0.11,-0.13,-0.115,-0.105
0.03,0.07,0.04,-0.05,-0.005,0.055,0.006,-0.08,-0.11,-0.13,-0.115,-0.104
0.03,0.07,0.04,-0.05,-0.005,0.055,0.01,-0.08,-0.11,-0.13,-0.115,-0.105
0.03,0.07,0.04,-0.05,-0.005,0.055,0.014,-0.08,-0.11,-0.13,-0.115,-0.117
0.033,0.07,0.037,-0.052,-0.002,0.053,0.016,-0.08,-0.11,-0.13,-0.115,-0.127
0.035,0.07,0.034,-0.053,0.0,0.052,0.013,-0.08,-0.11,-0.13,-0.115,-0.133
0.035,0.07,0.035,-0.053,0.0,0.052,0.01,-0.08,-0.11,-0.129,-0.115,-0.134
0.035,0.07,0.035,-0.053,0.0,0.052,0.01,-0.08,-0.11,-0.125,-0.115,-0.13
0.033,0.068,0.035,-0.051,-0.001,0.051,0.01,-0.08,-0.11,-0.125,-0.115,-0.13
0.051,0.083,0.032,-0.067,0.01,0.057,0.01,-0.08,-0.11,-0.125,-0.115,-0.13
0.061,0.09,0.029,-0.075,0.015,0.06,0.01,-0.08,-0.11,-0.125,-0.115,-0.13
0.054,0.084,0.03,-0.069,0.011,0.057,0.01,-0.081,-0.11,-0.125,-0.115,-0.13
0.055,0.085,0.03,-0.07,0.012,0.057,0.01,-0.085,-0.11,-0.125,-0.115,-0.13
0.055,0.085,0.03,-0.07,0.012,0.057,0.01,-0.085,-0.11,-0.125,-0.115,-0.13
0.055,0.085,0.031,-0.07,0.012,0.058,0.01,-0.085,-0.11,-0.125,-0.115,-0.13
0.055,0.083,0.028,-0.069,0.013,0.055,0.01,-0.085,-0.11,-0.125,-0.115,-0.13
0.055,0.08,0.025,-0.068,0.015,0.052,0.01,-0.085,-0.11,-0.125,-0.115,-0.13
0.055,0.08,0.025,-0.068,0.015,0.052,0.01,-0.085,-0.11,-0.125,-0.115,-0.13
0.055,0.08,0.025,-0.068,0.015,0.052,0.01,-0.085,-0.11,-0.125,-0.115,-0.13
0.055,0.081,0.026,-0.068,0.015,0.053,0.007,-0.085,-0.11,-0.125,-0.115,-0.13
0.055,0.078,0.023,-0.067,0.016,0.05,0.004,-0.085,-0.11,-0.125,-0.115,-0.13
0.055,0.075,0.02,-0.065,0.017,0.047,0.005,-0.085,-0.11,-0.125,-0.115,-0.13
0.055,0.075,0.02,-0.065,0.017,0.047,0.005,-0.085,-0.11,-0.125,-0.115,-0.13
0.055,0.075,0.02,-0.065,0.017,0.047,0.005,-0.085,-0.11,-0.125,-0.115,-0.13
0.054,0.075,0.021,-0.065,0.016,0.047,0.005,-0.085,-0.11,-0.125,-0.115,-0.13
0.057,0.075,0.018,-0.066,0.019,0.046,0.005,-0.085,-0.11,-0.125,-0.115,-0.13
0.05,0.074,0.024,-0.062,0.013,0.049,0.005,-0.085,-0.11,-0.125,-0.115,-0.13
0.025,0.07,0.045,-0.048,-0.01,0.057,0.005,-0.085,-0.11,-0.125,-0.115,-0.13
0.02,0.07,0.05,-0.045,-0.015,0.06,0.005,-0.085,-0.11,-0.125,-0.115,-0.13
0.02,0.07,0.05,-0.045,-0.015,0.06,0.005,-0.085,-0.11,-0.125,-0.115,-0.13
0.02,0.07,0.05,-0.045,-0.015,0.06,0.005,-0.085,-0.11,-0.125,-0.115,-0.13
0.019,0.069,0.05,-0.044,-0.015,0.06,0.005,-0.085,-0.11,-0.125,-0.115,-0.13
0.015,0.065,0.05,-0.04,-0.018,0.057,0.005,-0.085,-0.11,-0.125,-0.115,-0.13
0.015,0.065,0.05,-0.04,-0.018,0.057,0.001,-0.085,-0.11,-0.125,-0.115,-0.13
0.015,0.065,0.05,-0.04,-0.018,0.057,0.0,-0.085,-0.11,-0.122,-0.112,-0.127
0.016,0.065,0.05,-0.04,-0.018,0.057,-0.002,-0.085,-0.11,-0.119,-0.109,-0.124
0.014,0.065,0.051,-0.039,-0.019,0.057,-0.006,-0.085,-0.109,-0.12,-0.11,-0.125
0.01,0.065,0.055,-0.038,-0.023,0.06,-0.005,-0.085,-0.11,-0.12,-0.11,-0.125
0.014,0.069,0.055,-0.042,-0.021,0.062,-0.005,-0.085,-0.127,-0.12,-0.11,-0.125
0.016,0.07,0.055,-0.043,-0.02,0.062,-0.008,-0.082,-0.129,-0.12,-0.11,-0.125
0.015,0.07,0.055,-0.043,-0.02,0.062,-0.011,-0.079,-0.124,-0.12,-0.11,-0.125
0.015,0.07,0.055,-0.043,-0.02,0.062,-0.01,-0.08,-0.125,-0.12,-0.11,-0.125
0.015,0.07,0.055,-0.043,-0.02,0.062,-0.01,-0.08,-0.125,-0.12,-0.11,-0.125
0.015,0.07,0.055,-0.043,-0.02,0.062,-0.014,-0.08,-0.125,-0.12,-0.106,-0.125
0.014,0.07,0.056,-0.043,-0.021,0.062,-0.016,-0.08,-0.125,-0.12,-0.105,-0.125
0.017,0.07,0.053,-0.044,-0.018,0.061,-0.014,-0.08,-0.125,-0.12,-0.105,-0.125
0.02,0.07,0.05,-0.045,-0.015,0.06,-0.016,-0.08,-0.125,-0.12,-0.105,-0.125
0.02,0.07,0.05,-0.045,-0.015,0.06,-0.02,-0.08,-0.125,-0.12,-0.105,-0.125
0.02,0.07,0.05,-0.045,-0.015,0.06,-0.02,-0.08,-0.125,-0.116,-0.105,-0.121
0.023,0.07,0.047,-0.047,-0.012,0.058,-0.02,-0.08,-0.125,-0.115,-0.105,-0.12
0.026,0.07,0.044,-0.048,-0.009,0.057,-0.018,-0.08,-0.125,-0.115,-0.105,-0.12
0.025,0.07,0.045,-0.048,-0.01,0.057,-0.015,-0.08,-0.125,-0.115,-0.104,-0.12
0.025,0.07,0.045,-0.048,-0.01,0.057,-0.015,-0.08,-0.125,-0.115,-0.1,-0.12
0.029,0.07,0.041,-0.05,-0.006,0.055,-0.015,-0.08,-0.121,-0.115,-0.1,-0.12
0.03,0.07,0.04,-0.05,-0.005,0.055,-0.015,-0.08,-0.12,-0.115,-0.1,-0.12
0.03,0.07,0.04,-0.05,-0.005,0.055,-0.015,-0.08,-0.12,-0.115,-0.1,-0.12
0.03,0.07,0.04,-0.05,-0.005,0.055,-0.015,-0.08,-0.12,-0.115,-0.1,-0.12
0.03,0.07,0.04,-0.05,-0.005,0.055,-0.015,-0.08,-0.12,-0.115,-0.1,-0.12
0.029,0.07,0.041,-0.05,-0.006,0.055,-0.015,-0.08,-0.12,-0.115,-0.1,-0.12
0.033,0.07,0.037,-0.051,-0.002,0.054,-0.012,-0.08,-0.12,-0.115,-0.1,-0.121
0.02,0.07,0.05,-0.045,-0.015,0.06,-0.009,-0.08,-0.12,-0.115,-0.1,-0.118
0.003,0.079,0.076,-0.041,-0.037,0.077,-0.01,-0.08,-0.12,-0.114,-0.099,-0.124
0.005,0.095,0.09,-0.05,-0.043,0.092,-0.01,-0.08,-0.12,-0.11,-0.095,-0.14
0.005,0.091,0.086,-0.049,-0.041,0.088,-0.01,-0.08,-0.12,-0.11,-0.095,-0.137
0.005,0.09,0.085,-0.048,-0.04,0.087,-0.01,-0.08,-0.12,-0.11,-0.095,-0.134
0.005,0.088,0.083,-0.047,-0.039,0.085,-0.01,-0.08,-0.12,-0.11,-0.095,-0.135
0.005,0.085,0.079,-0.045,-0.038,0.082,-0.01,-0.079,-0.119,-0.11,-0.095,-0.135
0.005,0.085,0.08,-0.045,-0.038,0.082,-0.01,-0.075,-0.115,-0.11,-0.095,-0.135
0.0,0.081,0.081,-0.04,-0.04,0.081,-0.006,-0.075,-0.115,-0.11,-0.095,-0.131
0.003,0.08,0.077,-0.042,-0.037,0.078,-0.005,-0.075,-0.115,-0.11,-0.095,-0.13
0.003,0.078,0.075,-0.041,-0.036,0.076,-0.005,-0.075,-0.115,-0.11,-0.095,-0.13
0.0,0.075,0.074,-0.038,-0.037,0.074,-0.005,-0.075,-0.115,-0.11,-0.095,-0.13
0.005,0.075,0.07,-0.04,-0.033,0.072,-0.005,-0.075,-0.115,-0.11,-0.095,-0.13
0.001,0.071,0.07,-0.036,-0.034,0.07,-0.005,-0.075,-0.115,-0.11,-0.095,-0.126
-0.001,0.07,0.071,-0.035,-0.036,0.071,-0.005,-0.075,-0.115,-0.111,-0.095,-0.125
0.002,0.068,0.066,-0.035,-0.032,0.067,-0.005,-0.075,-0.115,-0.108,-0.095,-0.125
0.006,0.065,0.059,-0.035,-0.027,0.061,-0.005,-0.075,-0.115,-0.105,-0.095,-0.125
0.01,0.065,0.055,-0.038,-0.023,0.06,-0.005,-0.075,-0.115,-0.105,-0.095,-0.125
0.014,0.061,0.047,-0.038,-0.016,0.053,-0.001,-0.075,-0.115,-0.105,-0.095,-0.125
0.018,0.06,0.042,-0.039,-0.012,0.051,0.0,-0.076,-0.116,-0.105,-0.095,-0.122
0.022,0.058,0.036,-0.04,-0.007,0.047,0.0,-0.073,-0.113,-0.105,-0.095,-0.119
0.026,0.055,0.029,-0.041,-0.002,0.041,0.0,-0.07,-0.11,-0.105,-0.095,-0.12
0.03,0.055,0.025,-0.043,0.002,0.04,0.0,-0.07,-0.11,-0.105,-0.095,-0.12
0.03,0.051,0.021,-0.04,0.005,0.036,0.004,-0.07,-0.11,-0.105,-0.095,-0.12
0.031,0.05,0.019,-0.04,0.006,0.035,0.005,-0.07,-0.11,-0.105,-0.095,-0.117
0.028,0.048,0.021,-0.038,0.003,0.034,0.005,-0.07,-0.11,-0.105,-0.095,-0.114
0.026,0.045,0.019,-0.035,0.003,0.031,0.005,-0.07,-0.11,-0.105,-0.095,-0.115
0.03,0.045,0.015,-0.038,0.007,0.03,0.005,-0.07,-0.11,-0.105,-0.095,-0.115
0.027,0.041,0.015,-0.034,0.006,0.028,0.009,-0.07,-0.11,-0.105,-0.095,-0.115
0.021,0.037,0.016,-0.03,0.002,0.026,0.01,-0.07,-0.11,-0.102,-0.092,-0.116
0.02,0.033,0.013,-0.027,0.003,0.023,0.01,-0.07,-0.11,-0.099,-0.089,-0.113
0.019,0.029,0.01,-0.024,0.005,0.019,0.01,-0.07,-0.11,-0.1,-0.09,-0.11
